Frame,Time,Cursor Position X,Cursor Position Y,Cursor Position Z,Cursor Velocity X,Cursor Velocity Y,Cursor Velocity Z
1,0,0,0,0,0,0,0
2,0.02,-0.171828,0.07896143,-0.1364374,0.04756949,0.04756949,-0.05434785
3,0.0638844,-0.1760656,0.0801949,-0.1350395,0.02355534,0.02355534,0.06276604
4,0.1034388,-0.1784978,0.08116724,-0.1327553,0.02363185,0.02363185,0.05014492
5,0.1400535,-0.1804505,0.08252354,-0.1304785,0.04197481,0.04197481,0.07397725
6,0.1565309,-0.1816929,0.08339276,-0.1291264,0.046499,0.046499,0.08049631
7,0.1704939,-0.1830154,0.08433677,-0.1276076,0.06336396,0.06336396,0.1028694
8,0.1837454,-0.1846171,0.08529237,-0.1261324,0.06963668,0.06963668,0.1144723
9,0.1975885,-0.1865629,0.08597227,-0.1249307,0.05858456,0.05858456,0.09297251
10,0.2360388,-0.1915756,0.0884777,-0.1226263,0.08376519,0.08376519,0.05825401
11,0.2513915,-0.1930853,0.0898146,-0.121644,0.0831017,0.0831017,0.0661438
12,0.2659929,-0.1940207,0.09057067,-0.1210836,0.0650128,0.0650128,0.04495072
13,0.2800399,-0.1944649,0.09089099,-0.1207901,0.03463109,0.03463109,0.031946
14,0.3117977,-0.1941303,0.09085566,-0.1203177,-0.009654969,-0.009654969,0.01296528
15,0.3253573,-0.1937035,0.0907806,-0.1201078,-0.0103549,-0.0103549,0.0142702
16,0.338595,-0.1931453,0.09059028,-0.1200147,-0.01011244,-0.01011244,0.01431913
17,0.3539903,-0.1923547,0.09039209,-0.1200315,-0.01434202,-0.01434202,-0.003065251
18,0.37011,-0.1914333,0.09000666,-0.120184,-0.0274383,-0.0274383,-0.005416144
19,0.3872069,-0.1906836,0.08963327,-0.1203172,-0.02490938,-0.02490938,-0.008572961
20,0.4082211,-0.1899014,0.08924411,-0.1206338,-0.01874798,-0.01874798,-0.01293871
21,0.4274574,-0.1892176,0.08884354,-0.1207946,-0.0167279,-0.0167279,-0.01022481
22,0.4532342,-0.1886267,0.08828831,-0.1205963,-0.02089593,-0.02089593,0.01067767
23,0.4836143,-0.1875656,0.08760338,-0.1202594,-0.02263779,-0.02263779,0.0162998
24,0.5028167,-0.1868429,0.08716489,-0.1200927,-0.02395905,-0.02395905,0.007999934
25,0.5165626,-0.1862416,0.08684833,-0.1200866,-0.02313972,-0.02313972,0.005364011
26,0.5290386,-0.1856882,0.08653376,-0.1200037,-0.02276266,-0.02276266,0.004001481
27,0.5347713,-0.1854112,0.0863772,-0.1199618,-0.02353381,-0.02353381,0.004464404
28,0.5469373,-0.1847028,0.08602674,-0.1199969,-0.02497154,-0.02497154,0.002280211
29,0.5526638,-0.1844251,0.08596975,-0.1200532,-0.02584388,-0.02584388,0.001475315
30,0.5655096,-0.1836584,0.0855842,-0.1200552,-0.02725161,-0.02725161,-0.001389916
31,0.5710339,-0.1833894,0.08546915,-0.1201145,-0.02777547,-0.02777547,-0.001746132
32,0.5834453,-0.1825048,0.08512212,-0.1201508,-0.0298545,-0.0298545,-0.003305515
33,0.5894646,-0.1820632,0.08489487,-0.1201185,-0.03027704,-0.03027704,-0.00258844
34,0.5946259,-0.1816302,0.08470634,-0.1201889,-0.03147174,-0.03147174,-0.004151812
35,0.5996333,-0.1813031,0.08455608,-0.1202151,-0.03253273,-0.03253273,-0.005834701
36,0.6045994,-0.1808697,0.08436894,-0.1202836,-0.03368094,-0.03368094,-0.006329993
37,0.6129172,-0.1804937,0.08421981,-0.1203814,-0.033585,-0.033585,-0.007665168
38,0.6214156,-0.179462,0.08377538,-0.1205249,-0.03405709,-0.03405709,-0.01098809
39,0.6315668,-0.1786997,0.08344501,-0.1206106,-0.0330088,-0.0330088,-0.01069945
40,0.6626698,-0.1763153,0.08208825,-0.1202132,-0.04073147,-0.04073147,0.0124455
41,0.6690733,-0.1758239,0.08165784,-0.1200459,-0.04423407,-0.04423407,0.01773206
42,0.6816723,-0.1747047,0.08051208,-0.1197329,-0.08241267,-0.08241267,0.02453465
43,0.6875079,-0.1741723,0.0799062,-0.1195417,-0.0898411,-0.0898411,0.02677118
44,0.6999205,-0.1728408,0.07852727,-0.1192053,-0.1016099,-0.1016099,0.03108997
45,0.7128178,-0.171335,0.07698993,-0.118769,-0.1115951,-0.1115951,0.03398498
46,0.7255109,-0.1696453,0.07548116,-0.1183212,-0.1167152,-0.1167152,0.03591353
47,0.7382178,-0.1679382,0.07406843,-0.1178561,-0.1175345,-0.1175345,0.03839098
48,0.7507887,-0.166125,0.07257387,-0.1174179,-0.1133021,-0.1133021,0.03526825
49,0.7638999,-0.1646493,0.07125089,-0.1170648,-0.102619,-0.102619,0.02790358
50,0.7769754,-0.1635757,0.06994081,-0.1167449,-0.09764009,-0.09764009,0.01921116
51,0.7896977,-0.1627364,0.06857777,-0.1164609,-0.09819438,-0.09819438,0.020212
52,0.7955438,-0.1624838,0.06809436,-0.1164118,-0.1004579,-0.1004579,0.01901976
53,0.8084462,-0.1617674,0.06664702,-0.1161943,-0.09977845,-0.09977845,0.01571741
54,0.8145167,-0.1615641,0.06609141,-0.1160804,-0.1028483,-0.1028483,0.02576432
55,0.8273597,-0.1611474,0.06473176,-0.1157739,-0.09914314,-0.09914314,0.01994393
56,0.8405947,-0.1611207,0.06357676,-0.1151231,-0.09683064,-0.09683064,0.04556889
57,0.8531907,-0.1613246,0.06260487,-0.1146,-0.0889384,-0.0889384,0.04365397
58,0.8653683,-0.1618018,0.06163907,-0.1140463,-0.07442343,-0.07442343,0.03972302
59,0.877449,-0.1623682,0.06094351,-0.1135401,-0.07123118,-0.07123118,0.04496694
60,0.8893536,-0.1633644,0.06026709,-0.1131728,-0.05656423,-0.05656423,0.03328272
61,0.9012313,-0.1643117,0.0599172,-0.1129549,-0.04536406,-0.04536406,0.02827742
62,0.9129321,-0.1652538,0.05964375,-0.1127291,-0.02936688,-0.02936688,0.02040638
63,0.924221,-0.1660406,0.05974564,-0.1126897,-0.01351974,-0.01351974,0.01372224
64,0.9290647,-0.1663191,0.05975528,-0.1126541,-0.003558624,-0.003558624,0.009030105
65,0.9431197,-0.1669462,0.0599815,-0.1127096,0.01757935,0.01757935,0.00470996
66,0.9479802,-0.1671143,0.06003837,-0.1127064,0.01670945,0.01670945,0.003015608
67,0.9595399,-0.1673407,0.06018372,-0.1127335,0.0104627,0.0104627,-0.01175414
68,0.9639913,-0.1673407,0.06018372,-0.1127335,0.01047465,0.01047465,-0.01175245
69,0.9686146,-0.1673984,0.06028548,-0.1127637,0.009086577,0.009086577,-0.008060678
70,0.9806856,-0.1673984,0.06028548,-0.1127637,0,0,0
71,0.9923501,-0.1673494,0.06026262,-0.112738,0.0008684149,0.0008684149,-0.0009729369
72,1.004903,-0.1669467,0.06009232,-0.1126003,-0.01267743,-0.01267743,0.01431809
73,1.016989,-0.1662593,0.05983815,-0.1125113,-0.01993927,-0.01993927,0.00516318
74,1.0291,-0.1654862,0.05968018,-0.1122866,-0.02098608,-0.02098608,0.01282259
75,1.033915,-0.1651265,0.05969107,-0.1121879,-0.02009044,-0.02009044,0.01496014
76,1.045974,-0.1643177,0.05988413,-0.1118521,0.009104252,0.009104252,0.02248566
77,1.050688,-0.1640602,0.05999899,-0.1117163,0.01165348,0.01165348,0.02271173
78,1.061974,-0.1636733,0.06015553,-0.1112627,0.01465954,0.01465954,0.02840932
79,1.066561,-0.1637424,0.06020311,-0.1110299,0.02015828,0.02015828,0.03734317
80,1.077707,-0.1639607,0.06044716,-0.1104273,0.02118693,0.02118693,0.05716925
81,1.082059,-0.1640414,0.06059594,-0.1102904,0.02143674,0.02143674,0.05473525
82,1.086489,-0.1640372,0.06067032,-0.1102882,0.02779196,0.02779196,0.04038857
83,1.09772,-0.1641134,0.06089342,-0.110149,0.0224659,0.0224659,0.01603851
84,1.102154,-0.1641981,0.06096779,-0.110014,0.0221408,0.0221408,0.01588919
85,1.106732,-0.1642425,0.06096779,-0.1099477,0.01986885,0.01986885,0.01807962
86,1.117786,-0.164252,0.06091428,-0.1096848,-0.0006806438,-0.0006806438,0.01838444
87,1.122249,-0.1642345,0.06088758,-0.1095866,-0.001205922,-0.001205922,0.01798356
88,1.133901,-0.1641627,0.06070192,-0.1094606,-0.00833008,-0.00833008,0.02044005
89,1.145382,-0.1639719,0.06037286,-0.1092735,-0.02534169,-0.02534169,0.01632819
90,1.150181,-0.164016,0.06037286,-0.1092073,-0.02556565,-0.02556565,0.01560354
91,1.1615,-0.1638645,0.06011853,-0.108952,-0.01926337,-0.01926337,0.01588181
92,1.166378,-0.1638025,0.0600922,-0.1089203,-0.0197202,-0.0197202,0.01643852
93,1.179066,-0.1636503,0.05983853,-0.1086651,-0.0168881,-0.0168881,0.01794641
94,1.183852,-0.1635341,0.05963755,-0.1086057,-0.01826417,-0.01826417,0.01849643
95,1.188639,-0.1634576,0.05951108,-0.1084782,-0.02249091,-0.02249091,0.01838201
96,1.200498,-0.1631548,0.05883504,-0.1082354,-0.04580689,-0.04580689,0.01782979
97,1.205485,-0.1630377,0.05863476,-0.1081757,-0.0476554,-0.0476554,0.01856171
98,1.216684,-0.162848,0.05776262,-0.1079028,-0.0647018,-0.0647018,0.01936317
99,1.221212,-0.1627798,0.05741397,-0.1077802,-0.07141717,-0.07141717,0.02004817
100,1.225776,-0.1627764,0.05701637,-0.1076906,-0.07159004,-0.07159004,0.02073728
101,1.237326,-0.1627288,0.0561704,-0.1073153,-0.07837361,-0.07837361,0.02767721
102,1.241865,-0.162766,0.05577272,-0.1071588,-0.07823502,-0.07823502,0.03355524
103,1.24638,-0.1627949,0.05559853,-0.1069982,-0.07616893,-0.07616893,0.03711989
104,1.258258,-0.1629194,0.05512628,-0.1067107,-0.0508568,-0.0508568,0.02445863
105,1.262725,-0.1630532,0.05497719,-0.1065154,-0.04210966,-0.04210966,0.02634359
106,1.267282,-0.1630984,0.05490263,-0.1064507,-0.03262013,-0.03262013,0.02661187
107,1.278667,-0.1633132,0.05490263,-0.1061209,0,0,0.02671524
108,1.290032,-0.1634215,0.05487755,-0.1058257,-0.0006286312,-0.0006286312,0.02914437
109,1.294943,-0.163507,0.05487755,-0.1056936,0,0,0.02505234
110,1.306256,-0.1635293,0.0548525,-0.1055303,-0.0009735322,-0.0009735322,0.02202292
111,1.311084,-0.163572,0.0548525,-0.1054642,0,0,0.01942853
112,1.322471,-0.1635801,0.05457889,-0.1052071,-0.006247953,-0.006247953,0.01717751
113,1.327195,-0.1636268,0.05442977,-0.1051431,-0.02307247,-0.02307247,0.01715297
114,1.338587,-0.1636585,0.05403203,-0.1049848,-0.02879698,-0.02879698,0.01402669
115,1.3431,-0.1637046,0.05388287,-0.1049204,-0.02983332,-0.02983332,0.01335537
116,1.347719,-0.1637101,0.05365908,-0.1049231,-0.03458467,-0.03458467,0.01441448
117,1.352049,-0.1637559,0.05350991,-0.1048586,-0.03586892,-0.03586892,0.01232853
118,1.356261,-0.1638016,0.05336069,-0.1047941,-0.03596471,-0.03596471,0.01179237
119,1.360526,-0.1638487,0.05313683,-0.1047302,-0.03817667,-0.03817667,0.01091082
120,1.364933,-0.1638533,0.05291291,-0.1047325,-0.0389986,-0.0389986,0.01058273
121,1.375903,-0.163946,0.05246505,-0.104604,-0.04223968,-0.04223968,0.01017699
122,1.380297,-0.1639908,0.05231571,-0.104539,-0.04260807,-0.04260807,0.01031841
123,1.394625,-0.1642141,0.05141935,-0.1042135,-0.05104861,-0.05104861,0.01438149
124,1.408184,-0.1645676,0.05046755,-0.1037771,-0.06446724,-0.06446724,0.02748488
125,1.41323,-0.1647576,0.05011794,-0.1036083,-0.06637289,-0.06637289,0.03463044
126,1.425256,-0.1652844,0.04929455,-0.1031667,-0.06769741,-0.06769741,0.03563507
127,1.429981,-0.1655142,0.04894519,-0.1029294,-0.06970439,-0.06970439,0.03591856
128,1.442048,-0.1658641,0.04807155,-0.1024887,-0.07058986,-0.07058986,0.038649
129,1.446776,-0.1659444,0.0477719,-0.1023535,-0.07340406,-0.07340406,0.04304181
130,1.457818,-0.1660993,0.04687282,-0.1020803,-0.07281487,-0.07281487,0.03381098
131,1.462316,-0.1660848,0.04655319,-0.1019872,-0.07409433,-0.07409433,0.03019059
132,1.46678,-0.1660325,0.0460546,-0.1017904,-0.07699825,-0.07699825,0.02750446
133,1.47816,-0.1658586,0.04493119,-0.1016234,-0.1011333,-0.1011333,0.02725641
134,1.48264,-0.1657144,0.04428232,-0.1015565,-0.1058509,-0.1058509,0.01009727
135,1.487281,-0.1656371,0.04380794,-0.1015205,-0.1110747,-0.1110747,0.01019495
136,1.499394,-0.1655182,0.04220822,-0.1014653,-0.132677,-0.132677,0.0103362
137,1.512617,-0.165469,0.04018173,-0.1013566,-0.1402106,-0.1402106,0.005209273
138,1.517249,-0.1654789,0.03958112,-0.1012753,-0.1405322,-0.1405322,0.006561777
139,1.529813,-0.1654818,0.0375537,-0.1010194,-0.1484637,-0.1484637,0.01708472
140,1.542474,-0.1655487,0.03507522,-0.1005363,-0.1825927,-0.1825927,0.0291585
141,1.55453,-0.1655601,0.03282216,-0.1001143,-0.2045256,-0.2045256,0.03538379
142,1.565677,-0.1656836,0.03008658,-0.09957355,-0.2270943,-0.2270943,0.0439861
143,1.570375,-0.1657139,0.02905957,-0.09941697,-0.2359307,-0.2359307,0.04644406
144,1.581835,-0.1658535,0.02585417,-0.09888456,-0.2585005,-0.2585005,0.04518072
145,1.593432,-0.1658739,0.02280255,-0.09846935,-0.2741704,-0.2741704,0.04555893
146,1.60489,-0.1659449,0.01965411,-0.09807742,-0.2698191,-0.2698191,0.03969258
147,1.60961,-0.165885,0.01835722,-0.0979662,-0.2703653,-0.2703653,0.03295751
148,1.621241,-0.1657863,0.01571684,-0.09775344,-0.2533517,-0.2533517,0.02930415
149,1.626016,-0.1656855,0.01457313,-0.09770882,-0.2426372,-0.2426372,0.02754888
150,1.637234,-0.1655704,0.01243809,-0.09748924,-0.2027036,-0.2027036,0.01871528
151,1.642051,-0.1655114,0.01159504,-0.09746318,-0.1870241,-0.1870241,0.01757989
152,1.646623,-0.1655038,0.01082703,-0.09737562,-0.1633727,-0.1633727,0.01343424
153,1.658211,-0.1655286,0.009515375,-0.09721808,-0.1311877,-0.1311877,0.01242156
154,1.662825,-0.1655531,0.009021282,-0.09706055,-0.107334,-0.107334,0.01141116
155,1.667457,-0.1655891,0.00874947,-0.09699226,-0.09244064,-0.09244064,0.01640456
156,1.67945,-0.1657556,0.008280128,-0.09672884,-0.04562752,-0.04562752,0.01523626
157,1.683896,-0.1657769,0.008206174,-0.09665411,-0.04255874,-0.04255874,0.02513323
158,1.688649,-0.165855,0.008206174,-0.09652013,0,0,0.02142384
159,1.70067,-0.1661027,0.008265316,-0.09612387,0,0,0.0256396
160,1.713076,-0.1663492,0.008485556,-0.09581072,0.006964865,0.006964865,0.02554498
161,1.725018,-0.1666338,0.008707464,-0.09542973,0.02029949,0.02029949,0.02821282
162,1.73804,-0.1668997,0.008855462,-0.09504031,0.01812605,0.01812605,0.03019371
163,1.750647,-0.1671853,0.008929461,-0.09457525,0.008757992,0.008757992,0.03267539
164,1.763652,-0.167376,0.008929461,-0.09423732,0,0,0.03188641
165,1.776617,-0.1675282,0.008929461,-0.09396664,0,0,0.02773031
166,1.788729,-0.1677176,0.008929461,-0.09362801,0,0,0.0259211
167,1.801107,-0.1678924,0.008870229,-0.09328315,0,0,0.02531259
168,1.820372,-0.1681383,0.008797735,-0.09280087,0,0,0.02504647
169,1.83972,-0.1685492,0.008797735,-0.09205261,0,0,0.03806522
170,1.857595,-0.1690304,0.008797735,-0.09116602,0,0,0.04624914
171,1.865883,-0.1691965,0.008723885,-0.09081735,-0.001204931,-0.001204931,0.04681687
172,1.890164,-0.1698442,0.008328632,-0.08966377,-0.02426538,-0.02426538,0.04808408
173,1.902503,-0.1701959,0.007933661,-0.08905578,-0.02926812,-0.02926812,0.04674777
174,1.914305,-0.1706072,0.00744009,-0.0885523,-0.04048468,-0.04048468,0.0480594
175,1.925492,-0.1710787,0.006676674,-0.08790535,-0.05468829,-0.05468829,0.05056132
176,1.930338,-0.1712805,0.006430745,-0.08765107,-0.05922551,-0.05922551,0.05108665
177,1.942008,-0.1718006,0.005424291,-0.0870199,-0.07294362,-0.07294362,0.05572997
178,1.946779,-0.1719745,0.004958421,-0.08667201,-0.07983879,-0.07983879,0.0560252
179,1.958102,-0.1723706,0.003783971,-0.08599351,-0.09710149,-0.09710149,0.06023581
180,1.962909,-0.1725291,0.003197938,-0.08572192,-0.1027752,-0.1027752,0.06070715
181,1.974324,-0.1729785,0.001859039,-0.08506121,-0.1163638,-0.1163638,0.0625295
182,1.985772,-0.1734937,0.0002838671,-0.08434007,-0.1278159,-0.1278159,0.06170208
183,1.990483,-0.1736912,-0.0004170686,-0.08399893,-0.1319259,-0.1319259,0.06166453
184,2.002008,-0.1741059,-0.001981243,-0.08340465,-0.135133,-0.135133,0.06047893
185,2.0098,-0.174463,-0.00308153,-0.08295339,-0.1407003,-0.1407003,0.05953906
186,2.022274,-0.1748691,-0.005085051,-0.08219028,-0.1432006,-0.1432006,0.05963592
187,2.034477,-0.1752911,-0.006930888,-0.08143151,-0.1512761,-0.1512761,0.06006213
188,2.046177,-0.1755471,-0.00879091,-0.0807808,-0.1549468,-0.1549468,0.05948482
189,2.059216,-0.175744,-0.01070949,-0.08011099,-0.1550325,-0.1550325,0.05677148
190,2.070489,-0.1760419,-0.01248755,-0.07955521,-0.1506118,-0.1506118,0.05249399
191,2.075088,-0.176188,-0.01298732,-0.07943898,-0.14659,-0.14659,0.05010904
192,2.086879,-0.1766352,-0.01443444,-0.07892922,-0.1354465,-0.1354465,0.04561383
193,2.091432,-0.1767706,-0.0149278,-0.07880891,-0.1246651,-0.1246651,0.04184373
194,2.102607,-0.1772478,-0.01614553,-0.07838781,-0.1082686,-0.1082686,0.03782536
195,2.107297,-0.1773674,-0.01652126,-0.07826195,-0.1014512,-0.1014512,0.03548027
196,2.118276,-0.1776744,-0.01749083,-0.07786788,-0.09303573,-0.09303573,0.03530244
197,2.122531,-0.1777192,-0.01789212,-0.07771877,-0.08705469,-0.08705469,0.03514647
198,2.126889,-0.1777261,-0.01825216,-0.07755801,-0.08690215,-0.08690215,0.03639985
199,2.137954,-0.177669,-0.01917925,-0.07713418,-0.08813544,-0.08813544,0.03977408
200,2.142316,-0.1776384,-0.01960674,-0.0769625,-0.08560343,-0.08560343,0.03893542
201,2.146625,-0.1776725,-0.01989464,-0.07681049,-0.08430456,-0.08430456,0.03859466
202,2.157789,-0.1775015,-0.02084485,-0.0764349,-0.08176989,-0.08176989,0.03707775
203,2.162329,-0.1775359,-0.02117042,-0.07636423,-0.08089359,-0.08089359,0.03552781
204,2.16689,-0.1774968,-0.02148589,-0.07619066,-0.08001089,-0.08001089,0.03405302
205,2.178123,-0.1775527,-0.02227134,-0.07588384,-0.07552163,-0.07552163,0.02893397
206,2.182408,-0.1775822,-0.02259389,-0.07581173,-0.0714176,-0.0714176,0.02489774
207,2.186879,-0.17768,-0.02277838,-0.07575985,-0.06989129,-0.06989129,0.02484199
208,2.19814,-0.1779014,-0.02335918,-0.07558254,-0.06025245,-0.06025245,0.01977884
209,2.20265,-0.1780987,-0.0235492,-0.07555968,-0.05639092,-0.05639092,0.01902211
210,2.207221,-0.1781935,-0.02373102,-0.07550655,-0.05053971,-0.05053971,0.01588285
211,2.218279,-0.1785843,-0.0239632,-0.07537793,-0.03294664,-0.03294664,0.01171572
212,2.22282,-0.178751,-0.02404419,-0.07542662,-0.02620721,-0.02620721,0.01072029
213,2.227349,-0.1788111,-0.02418675,-0.075363,-0.02089466,-0.02089466,0.007803079
214,2.238869,-0.1792071,-0.02424107,-0.07531589,-0.0138573,-0.0138573,0.004651884
215,2.243251,-0.1792036,-0.02434604,-0.07531486,-0.01106405,-0.01106405,0.004807991
216,2.248373,-0.1794389,-0.02425188,-0.0753019,-0.01284751,-0.01284751,0.003862529
217,2.259963,-0.1794352,-0.02435663,-0.07530084,-0.006985911,-0.006985911,-0.003029214
218,2.271775,-0.1794314,-0.02446133,-0.07529973,-0.01279406,-0.01279406,0.001967526
219,2.283713,-0.1793231,-0.02466545,-0.07526829,-0.012442,-0.012442,0.001919785
220,2.295849,-0.1792144,-0.02486941,-0.07523675,-0.01460513,-0.01460513,0.002261078
221,2.307786,-0.1791011,-0.02517752,-0.07520386,-0.02009129,-0.02009129,0.003127375
222,2.312667,-0.1790357,-0.0253496,-0.07524981,-0.02388888,-0.02388888,0.003125013
223,2.317209,-0.178926,-0.02555303,-0.07521795,-0.0296305,-0.0296305,0.004037521
224,2.322052,-0.1789228,-0.02569321,-0.07529655,-0.03172101,-0.03172101,0.002165879
225,2.327028,-0.1787455,-0.02596402,-0.07532594,-0.03690781,-0.03690781,-0.005120413
226,2.338819,-0.1783159,-0.02667579,-0.07544343,-0.05479455,-0.05479455,-0.006267919
227,2.343388,-0.1780998,-0.02704883,-0.07554202,-0.06008704,-0.06008704,-0.006743734
228,2.348234,-0.1779199,-0.02731821,-0.07557005,-0.06080753,-0.06080753,-0.009331481
229,2.359449,-0.1772782,-0.0281918,-0.07578451,-0.07220282,-0.07220282,-0.0118465
230,2.36385,-0.1770276,-0.02852699,-0.07587148,-0.07375199,-0.07375199,-0.0147751
231,2.368638,-0.1767074,-0.02892867,-0.076018,-0.07597166,-0.07597166,-0.01419878
232,2.379991,-0.1761942,-0.02966337,-0.07610594,-0.07301526,-0.07301526,-0.01796228
233,2.384564,-0.1759787,-0.02992998,-0.07620203,-0.06928577,-0.06928577,-0.0174789
234,2.389062,-0.1758321,-0.03012979,-0.07623824,-0.0658206,-0.0658206,-0.0149376
235,2.400721,-0.1755302,-0.03059529,-0.07622748,-0.04813878,-0.04813878,-0.00929577
236,2.405715,-0.1754524,-0.03072813,-0.07620403,-0.04067082,-0.04067082,0.007185961
237,2.416932,-0.1753048,-0.03092724,-0.07623965,-0.02296765,-0.02296765,0.004076427
238,2.421416,-0.1753048,-0.03092724,-0.07623965,-0.02214765,-0.02214765,0.003930889
239,2.425851,-0.1752658,-0.03099358,-0.07622787,-0.01465891,-0.01465891,0.002604501
240,2.43747,-0.1751053,-0.03111579,-0.07617941,-0.0094768,-0.0094768,0.001848663
241,2.449195,-0.1749982,-0.03121339,-0.07614705,-0.009838223,-0.009838223,0.003317665
242,2.454212,-0.1749591,-0.03127965,-0.07613524,-0.01044059,-0.01044059,0.003426416
243,2.465691,-0.174821,-0.0313772,-0.07617352,-0.00738951,-0.00738951,6.010961E-05
244,2.470646,-0.1747818,-0.03144345,-0.07616168,-0.008327001,-0.008327001,0.0002295219
245,2.475329,-0.1747426,-0.03150964,-0.07614982,-0.00893668,-0.00893668,0.001600628
246,2.48735,-0.1746334,-0.03164202,-0.07619663,-0.01031285,-0.01031285,0.001853481
247,2.499087,-0.1745941,-0.03170821,-0.07618473,-0.009747864,-0.009747864,0.001753785
248,2.510635,-0.1745941,-0.03170821,-0.07618473,0,0,0
249,2.515823,-0.1745941,-0.03170821,-0.07618473,0,0,0
250,2.520286,-0.1745548,-0.03177434,-0.07617281,-0.003974542,-0.003974542,0.0007158322
