Frame,Time,Cursor Position X,Cursor Position Y,Cursor Position Z,Cursor Velocity X,Cursor Velocity Y,Cursor Velocity Z
1,0,0,0,0,0,0,0
2,0.02,-0.1899975,0.0003923476,-0.00452661,0,0,0
3,0.0442275,-0.1899975,0.0003923476,-0.00452661,0,0,0
4,0.063694,-0.1899975,0.0003923476,-0.00452661,0,0,0
5,0.0766524,-0.1899975,0.0003923476,-0.00452661,0,0,0
6,0.0966152,-0.1899975,0.0003923476,-0.00452661,0,0,0
7,0.1097553,-0.1899975,0.0003923476,-0.00452661,0,0,0
8,0.1262595,-0.1899975,0.0003923476,-0.00452661,0,0,0
9,0.1394377,-0.1899975,0.0003923476,-0.00452661,0,0,0
10,0.1585319,-0.1899975,0.0003923476,-0.00452661,0,0,0
11,0.1753008,-0.1899975,0.0003923476,-0.00452661,0,0,0
12,0.1925242,-0.1906925,0.002662867,-0.00446124,0.1126499,0.1126499,0.003160242
13,0.2114702,-0.1908448,0.003176689,-0.00444691,0.02248298,0.02248298,0.0006243453
14,0.2347856,-0.1908664,0.003250092,-0.004444877,0,0,0
15,0.2503111,-0.1908491,0.003191352,-0.004446507,0.002280133,0.002280133,6.318921E-05
16,0.2635543,-0.19077,0.003100067,-0.004453943,0,0,0
17,0.2783488,-0.1907484,0.003026754,-0.004455981,0,0,0
18,0.3004982,-0.1906557,0.002929658,-0.004464694,-0.0007226566,-0.0007226566,-0.000203736
19,0.3109291,-0.1906557,0.002929658,-0.004464694,0,0,0
20,0.3275761,-0.1906557,0.002929658,-0.004464694,0,0,0
21,0.3398481,-0.1906557,0.002929658,-0.004464694,0,0,0
22,0.3524575,-0.1906557,0.002929658,-0.004464694,0,0,0
23,0.358566,-0.1906557,0.002929658,-0.004464694,0,0,0
24,0.3642293,-0.1906557,0.002929658,-0.004464694,0,0,0
25,0.3706407,-0.1906557,0.002929658,-0.004464694,0,0,0
26,0.3761513,-0.1906557,0.002929658,-0.004464694,0,0,0
27,0.3891399,-0.1906557,0.002929658,-0.004464694,0,0,0
28,0.3948092,-0.1906557,0.002929658,-0.004464694,0,0,0
29,0.4004538,-0.1906557,0.002929658,-0.004464694,0,0,0
30,0.4058668,-0.1906557,0.002929658,-0.004464694,0,0,0
31,0.4109837,-0.1906557,0.002929658,-0.004464694,0,0,0
32,0.4210584,-0.1906557,0.002929658,-0.004464694,0,0,0
33,0.4270092,-0.1906557,0.002929658,-0.004464694,0,0,0
34,0.4322564,-0.1906557,0.002929658,-0.004464694,0,0,0
35,0.4377602,-0.1906557,0.002929658,-0.004464694,0,0,0
36,0.4430291,-0.1906557,0.002929658,-0.004464694,0,0,0
37,0.4485813,-0.1906557,0.002929658,-0.004464694,0,0,0
38,0.4618343,-0.1906557,0.002929658,-0.004464694,0,0,0
39,0.4676311,-0.1906557,0.002929658,-0.004464694,0,0,0
40,0.4729027,-0.1906557,0.002929658,-0.004464694,0,0,0
41,0.4782634,-0.1906557,0.002929658,-0.004464694,0,0,0
42,0.4837427,-0.1906557,0.002929658,-0.004464694,0,0,0
43,0.4961859,-0.1906557,0.002929658,-0.004464694,0,0,0
44,0.5016647,-0.1906557,0.002929658,-0.004464694,0,0,0
45,0.5073271,-0.1906557,0.002929658,-0.004464694,0,0,0
46,0.5127116,-0.1906557,0.002929658,-0.004464694,0,0,0
47,0.5178498,-0.1906557,0.002929658,-0.004464694,0,0,0
48,0.5260804,-0.1906557,0.002929658,-0.004464694,0,0,0
49,0.5313605,-0.1906557,0.002929658,-0.004464694,0,0,0
50,0.5362414,-0.1906557,0.002929658,-0.004464694,0,0,0
51,0.5412403,-0.1906557,0.002929658,-0.004464694,0,0,0
52,0.5476417,-0.1906557,0.002929658,-0.004464694,0,0,0
53,0.5530531,-0.1906557,0.002929658,-0.004464694,0,0,0
54,0.5614151,-0.1906557,0.002929658,-0.004464694,0,0,0
55,0.5671124,-0.1906557,0.002929658,-0.004464694,0,0,0
56,0.5723151,-0.1906557,0.002929658,-0.004464694,0,0,0
57,0.5782628,-0.1906557,0.002929658,-0.004464694,0,0,0
58,0.5836374,-0.1906557,0.002929658,-0.004464694,0,0,0
59,0.5893992,-0.1906557,0.002929658,-0.004464694,0,0,0
60,0.5979639,-0.1906557,0.002929658,-0.004464694,0,0,0
61,0.6034871,-0.1906557,0.002929658,-0.004464694,0,0,0
62,0.6089624,-0.1906557,0.002929658,-0.004464694,0,0,0
63,0.6199166,-0.1906557,0.002929658,-0.004464694,0,0,0
64,0.6256459,-0.1906557,0.002929658,-0.004464694,0,0,0
65,0.6344833,-0.1906557,0.002929658,-0.004464694,0,0,0
66,0.6399715,-0.1906557,0.002929658,-0.004464694,0,0,0
67,0.651403,-0.1906557,0.002929658,-0.004464694,0,0,0
68,0.6620038,-0.1906557,0.002929658,-0.004464694,0,0,0
69,0.6805671,-0.1906557,0.002929658,-0.004464694,0,0,0
70,0.6867815,-0.1906557,0.002929658,-0.004464694,0,0,0
71,0.6926343,-0.1906557,0.002929658,-0.004464694,0,0,0
72,0.7013413,-0.1906557,0.002929658,-0.004464694,0,0,0
73,0.7072408,-0.1906557,0.002929658,-0.004464694,0,0,0
74,0.7126755,-0.1906557,0.002929658,-0.004464694,0,0,0
75,0.7181178,-0.1906557,0.002929658,-0.004464694,0,0,0
76,0.7233946,-0.1906557,0.002929658,-0.004464694,0,0,0
77,0.7289378,-0.1906557,0.002929658,-0.004464694,0,0,0
78,0.7374022,-0.1906557,0.002929658,-0.004464694,0,0,0
79,0.7430509,-0.1906557,0.002929658,-0.004464694,0,0,0
80,0.7488086,-0.1906557,0.002929658,-0.004464694,0,0,0
81,0.7545549,-0.1906557,0.002929658,-0.004464694,0,0,0
82,0.7599268,-0.1906557,0.002929658,-0.004464694,0,0,0
83,0.7652145,-0.1906557,0.002929658,-0.004464694,0,0,0
84,0.7738178,-0.1906557,0.002929658,-0.004464694,0,0,0
85,0.7794499,-0.1906557,0.002929658,-0.004464694,0,0,0
86,0.7850669,-0.1906557,0.002929658,-0.004464694,0,0,0
87,0.7908191,-0.1906557,0.002929658,-0.004464694,0,0,0
88,0.7963431,-0.1906557,0.002929658,-0.004464694,0,0,0
89,0.8019903,-0.1906557,0.002929658,-0.004464694,0,0,0
90,0.8106964,-0.1906557,0.002929658,-0.004464694,0,0,0
91,0.816985,-0.1906557,0.002929658,-0.004464694,0,0,0
92,0.8221913,-0.1906557,0.002929658,-0.004464694,0,0,0
93,0.8277169,-0.1906557,0.002929658,-0.004464694,0,0,0
94,0.8326334,-0.1906557,0.002929658,-0.004464694,0,0,0
95,0.8367444,-0.1906557,0.002929658,-0.004464694,0,0,0
96,0.8442998,-0.1906557,0.002929658,-0.004464694,0,0,0
97,0.8490444,-0.1906557,0.002929658,-0.004464694,0,0,0
98,0.8538364,-0.1906557,0.002929658,-0.004464694,0,0,0
99,0.8580368,-0.1906557,0.002929658,-0.004464694,0,0,0
100,0.862132,-0.1906557,0.002929658,-0.004464694,0,0,0
101,0.8685972,-0.1906557,0.002929658,-0.004464694,0,0,0
102,0.8730203,-0.1906557,0.002929658,-0.004464694,0,0,0
103,0.8809145,-0.1906557,0.002929658,-0.004464694,0,0,0
104,0.8858563,-0.1906557,0.002929658,-0.004464694,0,0,0
105,0.8904294,-0.1906557,0.002929658,-0.004464694,0,0,0
106,0.8950984,-0.1906557,0.002929658,-0.004464694,0,0,0
107,0.8994587,-0.1906557,0.002929658,-0.004464694,0,0,0
108,0.9038558,-0.1906557,0.002929658,-0.004464694,0,0,0
109,0.9084876,-0.1906557,0.002929658,-0.004464694,0,0,0
110,0.916345,-0.1906557,0.002929658,-0.004464694,0,0,0
111,0.9209493,-0.1906557,0.002929658,-0.004464694,0,0,0
112,0.92591,-0.1906557,0.002929658,-0.004464694,0,0,0
113,0.930322,-0.1906557,0.002929658,-0.004464694,0,0,0
114,0.9347202,-0.1906557,0.002929658,-0.004464694,0,0,0
115,0.9391082,-0.1906557,0.002929658,-0.004464694,0,0,0
116,0.9435031,-0.1906557,0.002929658,-0.004464694,0,0,0
117,0.9518393,-0.1906557,0.002929658,-0.004464694,0,0,0
118,0.9564378,-0.1906557,0.002929658,-0.004464694,0,0,0
119,0.9609453,-0.1906557,0.002929658,-0.004464694,0,0,0
120,0.9660246,-0.1906557,0.002929658,-0.004464694,0,0,0
121,0.9707976,-0.1906557,0.002929658,-0.004464694,0,0,0
122,0.9751829,-0.1906557,0.002929658,-0.004464694,0,0,0
123,0.9797729,-0.1906557,0.002929658,-0.004464694,0,0,0
124,0.98777,-0.1906557,0.002929658,-0.004464694,0,0,0
125,0.9924392,-0.1906557,0.002929658,-0.004464694,0,0,0
126,0.9968841,-0.1906557,0.002929658,-0.004464694,0,0,0
127,1.001327,-0.1906557,0.002929658,-0.004464694,0,0,0
128,1.005937,-0.1906557,0.002929658,-0.004464694,0,0,0
129,1.010402,-0.1906557,0.002929658,-0.004464694,0,0,0
130,1.015138,-0.1906557,0.002929658,-0.004464694,0,0,0
131,1.023052,-0.1906731,0.002988398,-0.004463057,0,0,0
132,1.028215,-0.1906731,0.002988398,-0.004463057,0,0,0
133,1.03257,-0.1906731,0.002988398,-0.004463057,0,0,0
134,1.037078,-0.1906731,0.002988398,-0.004463057,0,0,0
135,1.041372,-0.1906731,0.002988398,-0.004463057,0,0,0
136,1.046132,-0.1906731,0.002988398,-0.004463057,0,0,0
137,1.050417,-0.1906731,0.002988398,-0.004463057,0,0,0
138,1.058195,-0.1906731,0.002988398,-0.004463057,0,0,0
139,1.062776,-0.1906731,0.002988398,-0.004463057,0,0,0
140,1.067326,-0.1906731,0.002988398,-0.004463057,0,0,0
141,1.071709,-0.1906731,0.002988398,-0.004463057,0,0,0
142,1.076836,-0.1906731,0.002988398,-0.004463057,0,0,0
143,1.081383,-0.1906731,0.002988398,-0.004463057,0,0,0
144,1.086043,-0.1906731,0.002988398,-0.004463057,0,0,0
145,1.094013,-0.1906731,0.002988398,-0.004463057,0,0,0
146,1.098536,-0.1906731,0.002988398,-0.004463057,0,0,0
147,1.10291,-0.1906731,0.002988398,-0.004463057,0,0,0
148,1.107785,-0.1906731,0.002988398,-0.004463057,0,0,0
149,1.112232,-0.1906731,0.002988398,-0.004463057,0,0,0
150,1.116739,-0.1906731,0.002988398,-0.004463057,0,0,0
151,1.121233,-0.1906731,0.002988398,-0.004463057,0,0,0
152,1.129622,-0.1906731,0.002988398,-0.004463057,0,0,0
153,1.134336,-0.1906731,0.002988398,-0.004463057,0,0,0
154,1.138785,-0.1906731,0.002988398,-0.004463057,0,0,0
155,1.143166,-0.1906731,0.002988398,-0.004463057,0,0,0
156,1.148084,-0.1906731,0.002988398,-0.004463057,0,0,0
157,1.152519,-0.1906731,0.002988398,-0.004463057,0,0,0
158,1.156798,-0.1906731,0.002988398,-0.004463057,0,0,0
159,1.165008,-0.1906731,0.002988398,-0.004463057,0,0,0
160,1.170388,-0.1906731,0.002988398,-0.004463057,0,0,0
161,1.175371,-0.1906731,0.002988398,-0.004463057,0,0,0
162,1.180171,-0.1906731,0.002988398,-0.004463057,0,0,0
163,1.185278,-0.1906731,0.002988398,-0.004463057,0,0,0
164,1.189919,-0.1906731,0.002988398,-0.004463057,0,0,0
165,1.197885,-0.1906731,0.002988398,-0.004463057,0,0,0
166,1.202517,-0.1906731,0.002988398,-0.004463057,0,0,0
167,1.207212,-0.1906731,0.002988398,-0.004463057,0,0,0
168,1.211644,-0.1906731,0.002988398,-0.004463057,0,0,0
169,1.216199,-0.1906731,0.002988398,-0.004463057,0,0,0
170,1.220494,-0.1906731,0.002988398,-0.004463057,0,0,0
171,1.225086,-0.1906731,0.002988398,-0.004463057,0,0,0
172,1.232997,-0.1906731,0.002988398,-0.004463057,0,0,0
173,1.23763,-0.1906731,0.002988398,-0.004463057,0,0,0
174,1.242386,-0.1906731,0.002988398,-0.004463057,0,0,0
175,1.247229,-0.1906731,0.002988398,-0.004463057,0,0,0
176,1.251937,-0.1906731,0.002988398,-0.004463057,0,0,0
177,1.256383,-0.1906731,0.002988398,-0.004463057,0,0,0
178,1.260915,-0.1906731,0.002988398,-0.004463057,0,0,0
179,1.268976,-0.1906731,0.002988398,-0.004463057,0,0,0
180,1.274141,-0.1906731,0.002988398,-0.004463057,0,0,0
181,1.278708,-0.1906731,0.002988398,-0.004463057,0,0,0
182,1.283158,-0.1906731,0.002988398,-0.004463057,0,0,0
183,1.288316,-0.1906731,0.002988398,-0.004463057,0,0,0
184,1.292876,-0.1906731,0.002988398,-0.004463057,0,0,0
185,1.297491,-0.1906731,0.002988398,-0.004463057,0,0,0
186,1.305547,-0.1906731,0.002988398,-0.004463057,0,0,0
187,1.310397,-0.1906731,0.002988398,-0.004463057,0,0,0
188,1.314932,-0.1906731,0.002988398,-0.004463057,0,0,0
189,1.31972,-0.1906731,0.002988398,-0.004463057,0,0,0
190,1.324498,-0.1906731,0.002988398,-0.004463057,0,0,0
191,1.329964,-0.1906731,0.002988398,-0.004463057,0,0,0
192,1.335013,-0.1906731,0.002988398,-0.004463057,0,0,0
193,1.343232,-0.1906731,0.002988398,-0.004463057,0,0,0
194,1.348492,-0.1906731,0.002988398,-0.004463057,0,0,0
195,1.353154,-0.1906731,0.002988398,-0.004463057,0,0,0
196,1.357831,-0.1906731,0.002988398,-0.004463057,0,0,0
197,1.362545,-0.1906731,0.002988398,-0.004463057,0,0,0
198,1.367314,-0.1906731,0.002988398,-0.004463057,0,0,0
199,1.371676,-0.1906731,0.002988398,-0.004463057,0,0,0
200,1.379622,-0.1906731,0.002988398,-0.004463057,0,0,0
201,1.384501,-0.1906731,0.002988398,-0.004463057,0,0,0
202,1.389256,-0.1906731,0.002988398,-0.004463057,0,0,0
203,1.393483,-0.1906731,0.002988398,-0.004463057,0,0,0
204,1.397608,-0.1906731,0.002988398,-0.004463057,0,0,0
205,1.402505,-0.1906731,0.002988398,-0.004463057,0,0,0
206,1.406897,-0.1906731,0.002988398,-0.004463057,0,0,0
207,1.414449,-0.1906731,0.002988398,-0.004463057,0,0,0
208,1.418778,-0.1906731,0.002988398,-0.004463057,0,0,0
209,1.422981,-0.1906731,0.002988398,-0.004463057,0,0,0
210,1.42747,-0.1906731,0.002988398,-0.004463057,0,0,0
211,1.431994,-0.1906731,0.002988398,-0.004463057,0,0,0
212,1.436112,-0.1906731,0.002988398,-0.004463057,0,0,0
213,1.44046,-0.1906731,0.002988398,-0.004463057,0,0,0
214,1.44856,-0.1906731,0.002988398,-0.004463057,0,0,0
215,1.452754,-0.1906731,0.002988398,-0.004463057,0,0,0
216,1.456828,-0.1906731,0.002988398,-0.004463057,0,0,0
217,1.46117,-0.1906731,0.002988398,-0.004463057,0,0,0
218,1.465653,-0.1906731,0.002988398,-0.004463057,0,0,0
219,1.469826,-0.1906731,0.002988398,-0.004463057,0,0,0
220,1.474211,-0.1906731,0.002988398,-0.004463057,0,0,0
221,1.482123,-0.1906731,0.002988398,-0.004463057,0,0,0
222,1.486925,-0.1906731,0.002988398,-0.004463057,0,0,0
223,1.491284,-0.1906731,0.002988398,-0.004463057,0,0,0
224,1.49563,-0.1906731,0.002988398,-0.004463057,0,0,0
225,1.500074,-0.1906731,0.002988398,-0.004463057,0,0,0
226,1.504686,-0.1906731,0.002988398,-0.004463057,0,0,0
227,1.509009,-0.1906731,0.002988398,-0.004463057,0,0,0
228,1.5168,-0.1906731,0.002988398,-0.004463057,0,0,0
229,1.521508,-0.1906731,0.002988398,-0.004463057,0,0,0
230,1.52626,-0.1906731,0.002988398,-0.004463057,0,0,0
231,1.530661,-0.1906731,0.002988398,-0.004463057,0,0,0
232,1.535192,-0.1906731,0.002988398,-0.004463057,0,0,0
233,1.539705,-0.1906731,0.002988398,-0.004463057,0,0,0
234,1.544022,-0.1906731,0.002988398,-0.004463057,0,0,0
235,1.552356,-0.1906731,0.002988398,-0.004463057,0,0,0
236,1.556922,-0.1906731,0.002988398,-0.004463057,0,0,0
237,1.561099,-0.1906731,0.002988398,-0.004463057,0,0,0
238,1.56594,-0.1906731,0.002988398,-0.004463057,0,0,0
239,1.570537,-0.1906731,0.002988398,-0.004463057,0,0,0
240,1.574838,-0.1906731,0.002988398,-0.004463057,0,0,0
241,1.579185,-0.1906731,0.002988398,-0.004463057,0,0,0
242,1.586693,-0.1906731,0.002988398,-0.004463057,0,0,0
243,1.591182,-0.1906731,0.002988398,-0.004463057,0,0,0
244,1.595521,-0.1906731,0.002988398,-0.004463057,0,0,0
245,1.599767,-0.1906731,0.002988398,-0.004463057,0,0,0
246,1.604796,-0.1906731,0.002988398,-0.004463057,0,0,0
247,1.609866,-0.1906731,0.002988398,-0.004463057,0,0,0
248,1.614375,-0.1906731,0.002988398,-0.004463057,0,0,0
249,1.622082,-0.1906731,0.002988398,-0.004463057,0,0,0
250,1.626934,-0.1906731,0.002988398,-0.004463057,0,0,0
251,1.631424,-0.1906731,0.002988398,-0.004463057,0,0,0
252,1.635952,-0.1906731,0.002988398,-0.004463057,0,0,0
253,1.640407,-0.1906731,0.002988398,-0.004463057,0,0,0
254,1.645334,-0.1906731,0.002988398,-0.004463057,0,0,0
255,1.649854,-0.1906731,0.002988398,-0.004463057,0,0,0
256,1.657417,-0.1906731,0.002988398,-0.004463057,0,0,0
257,1.66198,-0.1906731,0.002988398,-0.004463057,0,0,0
258,1.66652,-0.1906731,0.002988398,-0.004463057,0,0,0
259,1.670786,-0.1906731,0.002988398,-0.004463057,0,0,0
260,1.674898,-0.1906731,0.002988398,-0.004463057,0,0,0
261,1.679071,-0.1906731,0.002988398,-0.004463057,0,0,0
262,1.683311,-0.1906731,0.002988398,-0.004463057,0,0,0
263,1.691114,-0.1906731,0.002988398,-0.004463057,0,0,0
264,1.695341,-0.1906731,0.002988398,-0.004463057,0,0,0
265,1.699592,-0.1906731,0.002988398,-0.004463057,0,0,0
266,1.704362,-0.1906731,0.002988398,-0.004463057,0,0,0
267,1.708687,-0.1906731,0.002988398,-0.004463057,0,0,0
268,1.712805,-0.1906731,0.002988398,-0.004463057,0,0,0
269,1.716936,-0.1906731,0.002988398,-0.004463057,0,0,0
270,1.724295,-0.1906731,0.002988398,-0.004463057,0,0,0
271,1.728925,-0.1906731,0.002988398,-0.004463057,0,0,0
272,1.733248,-0.1906731,0.002988398,-0.004463057,0,0,0
273,1.73732,-0.1906731,0.002988398,-0.004463057,0,0,0
274,1.741491,-0.1906731,0.002988398,-0.004463057,0,0,0
275,1.74663,-0.1906731,0.002988398,-0.004463057,0,0,0
276,1.7508,-0.1906731,0.002988398,-0.004463057,0,0,0
277,1.758317,-0.1906731,0.002988398,-0.004463057,0,0,0
278,1.762834,-0.1906731,0.002988398,-0.004463057,0,0,0
279,1.767322,-0.1906731,0.002988398,-0.004463057,0,0,0
280,1.771626,-0.1906731,0.002988398,-0.004463057,0,0,0
281,1.776364,-0.1906731,0.002988398,-0.004463057,0,0,0
282,1.780491,-0.1906731,0.002988398,-0.004463057,0,0,0
283,1.785078,-0.1906731,0.002988398,-0.004463057,0,0,0
284,1.792601,-0.1906731,0.002988398,-0.004463057,0,0,0
285,1.796961,-0.1906731,0.002988398,-0.004463057,0,0,0
286,1.801149,-0.1906731,0.002988398,-0.004463057,0,0,0
287,1.805804,-0.1906731,0.002988398,-0.004463057,0,0,0
288,1.810227,-0.1906731,0.002988398,-0.004463057,0,0,0
289,1.814493,-0.1906731,0.002988398,-0.004463057,0,0,0
290,1.818707,-0.1906731,0.002988398,-0.004463057,0,0,0
291,1.826572,-0.1906731,0.002988398,-0.004463057,0,0,0
292,1.83104,-0.1906731,0.002988398,-0.004463057,0,0,0
293,1.835169,-0.1906731,0.002988398,-0.004463057,0,0,0
294,1.839393,-0.1906731,0.002988398,-0.004463057,0,0,0
295,1.843675,-0.1906731,0.002988398,-0.004463057,0,0,0
296,1.848155,-0.1906731,0.002988398,-0.004463057,0,0,0
297,1.852443,-0.1906731,0.002988398,-0.004463057,0,0,0
298,1.8599,-0.1906731,0.002988398,-0.004463057,0,0,0
299,1.864076,-0.1906731,0.002988398,-0.004463057,0,0,0
300,1.86869,-0.1906731,0.002988398,-0.004463057,0,0,0
301,1.873055,-0.1906731,0.002988398,-0.004463057,0,0,0
302,1.87736,-0.1906731,0.002988398,-0.004463057,0,0,0
303,1.881759,-0.1906731,0.002988398,-0.004463057,0,0,0
304,1.886613,-0.1906731,0.002988398,-0.004463057,0,0,0
305,1.894286,-0.1906731,0.002988398,-0.004463057,0,0,0
306,1.899138,-0.1906731,0.002988398,-0.004463057,0,0,0
307,1.903546,-0.1906731,0.002988398,-0.004463057,0,0,0
308,1.908099,-0.1906731,0.002988398,-0.004463057,0,0,0
309,1.913111,-0.1906731,0.002988398,-0.004463057,0,0,0
310,1.917706,-0.1906731,0.002988398,-0.004463057,0,0,0
311,1.922228,-0.1906731,0.002988398,-0.004463057,0,0,0
312,1.930313,-0.1906731,0.002988398,-0.004463057,0,0,0
313,1.934902,-0.1906731,0.002988398,-0.004463057,0,0,0
314,1.939289,-0.1906731,0.002988398,-0.004463057,0,0,0
315,1.943664,-0.1906731,0.002988398,-0.004463057,0,0,0
316,1.948377,-0.1906731,0.002988398,-0.004463057,0,0,0
317,1.952784,-0.1906731,0.002988398,-0.004463057,0,0,0
318,1.956866,-0.1906731,0.002988398,-0.004463057,0,0,0
319,1.964399,-0.1906731,0.002988398,-0.004463057,0,0,0
320,1.969254,-0.1906731,0.002988398,-0.004463057,0,0,0
321,1.973338,-0.1906731,0.002988398,-0.004463057,0,0,0
322,1.977757,-0.1907524,0.003079742,-0.004455601,7.64432E-05,7.64432E-05,2.123183E-06
323,1.98204,-0.1909186,0.003200918,-0.004378384,0.0001810163,0.0001810163,1.232629E-05
324,1.986434,-0.1911605,0.003347248,-0.004203098,0.0002993227,0.0002993227,3.656311E-05
325,1.990809,-0.191496,0.00359185,-0.004016755,0.03781452,0.03781452,0.005095013
326,1.999462,-0.1919997,0.003959984,-0.00365867,0.04135971,0.04135971,0.03959313
327,2.003906,-0.1924059,0.004231036,-0.003463778,0.0434422,0.0434422,0.03993158
328,2.008568,-0.1926461,0.004379436,-0.003284735,0.04334658,0.04334658,0.03996263
329,2.01297,-0.1929059,0.004601732,-0.003181112,0.04496138,0.04496138,0.03919898
330,2.017367,-0.1930426,0.00484769,-0.003089652,0.0460528,0.0460528,0.03759238
331,2.022484,-0.1934051,0.005438894,-0.003053371,0.0818371,0.0818371,0.006033101
332,2.027109,-0.1936218,0.005980164,-0.003031677,0.106355,0.106355,0.005933619
333,2.035124,-0.1943456,0.007436067,-0.002959236,0.1649916,0.1649916,0.007627615
334,2.039592,-0.1947965,0.008400187,-0.002976937,0.1950216,0.1950216,0.01151527
335,2.043695,-0.1953357,0.009736359,-0.003079064,0.2377354,0.2377354,0.004369585
336,2.047923,-0.1958092,0.01085243,-0.003190168,0.2651348,0.2651348,-0.018843
337,2.052069,-0.1962934,0.01204465,-0.003300953,0.2802193,0.2802193,-0.02072257
338,2.0567,-0.1970713,0.01369005,-0.003304803,0.2936637,0.2936637,-0.01505494
339,2.060917,-0.1976648,0.0148657,-0.003247285,0.3013351,0.3013351,-0.01692245
340,2.068695,-0.1990181,0.01750241,-0.003116126,0.3155099,0.3155099,0.01437376
341,2.073176,-0.1996869,0.01886272,-0.003131887,0.3267435,0.3267435,0.00415586
342,2.077289,-0.2004321,0.02032858,-0.003059967,0.3350104,0.3350104,0.004434112
343,2.081544,-0.2013754,0.02222937,-0.002968927,0.3554859,0.3554859,0.01705757
344,2.086096,-0.2021649,0.0237318,-0.002892735,0.3666925,0.3666925,0.01707322
345,2.090539,-0.2029659,0.02538875,-0.002897336,0.3888161,0.3888161,0.01755806
346,2.094906,-0.2039728,0.02763548,-0.002882849,0.4150835,0.4150835,0.01108594
347,2.102683,-0.2056089,0.03137985,-0.003058151,0.4592543,0.4592543,-0.01060698
