Frame,Time,Cursor Position X,Cursor Position Y,Cursor Position Z,Cursor Velocity X,Cursor Velocity Y,Cursor Velocity Z
543751,1060.429,0,0,0,0,0,0
543752,1060.429,-0.0696265,0.1794313,-0.1857453,0,0,0.002477429
543753,1060.449,-0.0696265,0.1794313,-0.1857453,0,0,0.002477429
543754,1060.457,-0.0696265,0.1794313,-0.1857453,0,0,0.002477429
543755,1060.462,-0.0696265,0.1794313,-0.1857453,0,0,0.002477429
543756,1060.467,-0.0696265,0.1794313,-0.1857453,0,0,0.002477429
543757,1060.471,-0.0696265,0.1794313,-0.1857453,0,0,0.002477429
543758,1060.476,-0.0696265,0.1794313,-0.1857453,0,0,0.002477429
543759,1060.482,-0.0696265,0.1794313,-0.1857453,0,0,0.002477429
543760,1060.487,-0.0696265,0.1794313,-0.1857453,0,0,0.002477429
543761,1060.492,-0.0696265,0.1794313,-0.1857453,0,0,0.002477429
543762,1060.498,-0.0696265,0.1794313,-0.1857453,0,0,0.002477429
543763,1060.503,-0.0696265,0.1794313,-0.1857453,0,0,0.002477429
543764,1060.508,-0.0696265,0.1794313,-0.1857453,0,0,0.002477429
543765,1060.514,-0.0696265,0.1794313,-0.1857453,0,0,0.002477429
543766,1060.519,-0.0696265,0.1794313,-0.1857453,0,0,0.002477429
543767,1060.523,-0.0696265,0.1794313,-0.1857453,0,0,0.002477429
543768,1060.529,-0.0696265,0.1794313,-0.1857453,0,0,0.002477429
543769,1060.534,-0.0696265,0.1794313,-0.1857453,0,0,0.002477429
543770,1060.538,-0.0696265,0.1794313,-0.1857453,0,0,0.002477429
543771,1060.543,-0.0696265,0.1794313,-0.1857453,0,0,0.002477429
543772,1060.549,-0.0696265,0.1794313,-0.1857453,0,0,0.002477429
543773,1060.553,-0.0696265,0.1794313,-0.1857453,0,0,0.002477429
543774,1060.558,-0.0696265,0.1794313,-0.1857453,0,0,0.002477429
543775,1060.563,-0.0696265,0.1794313,-0.1857453,0,0,0.002477429
543776,1060.568,-0.0696265,0.1794313,-0.1857453,0,0,0.002477429
543777,1060.573,-0.0696265,0.1794313,-0.1857453,0,0,0.002477429
543778,1060.578,-0.0696265,0.1794313,-0.1857453,0,0,0.002477429
543779,1060.583,-0.0696265,0.1794313,-0.1857453,0,0,0.002477429
543780,1060.587,-0.0696265,0.1794313,-0.1857453,0,0,0.002477429
543781,1060.593,-0.0696265,0.1794313,-0.1857453,0,0,0.002477429
543782,1060.598,-0.0696265,0.1794313,-0.1857453,0,0,0.002477429
543783,1060.603,-0.0696265,0.1794313,-0.1857453,0,0,0.002477429
543784,1060.608,-0.0696265,0.1794313,-0.1857453,0,0,0.002477429
543785,1060.613,-0.0696265,0.1794313,-0.1857453,0,0,0.002477429
543786,1060.618,-0.0696265,0.1794313,-0.1857453,0,0,0.002477429
543787,1060.622,-0.0696265,0.1794313,-0.1857453,0,0,0.002477429
543788,1060.628,-0.0696265,0.1794313,-0.1857453,0,0,0.002477429
543789,1060.632,-0.0696265,0.1794313,-0.1857453,0,0,0.002477429
543790,1060.637,-0.0696265,0.1794313,-0.1857453,0,0,0.002477429
543791,1060.642,-0.0696265,0.1794313,-0.1857453,0,0,0.002477429
543792,1060.646,-0.07132752,0.1794838,-0.1850478,0,0,0.004290603
543793,1060.651,-0.0714023,0.1794838,-0.1850189,0,0,0.004452585
543794,1060.656,-0.0714023,0.1794838,-0.1850189,0,0,0.004451087
543795,1060.66,-0.07147706,0.1794838,-0.1849901,0,0,0.004299599
543796,1060.664,-0.07155182,0.1794838,-0.1849612,0,0,0.004342656
543797,1060.669,-0.07162651,0.1794838,-0.1849322,0,0,0.004501708
543798,1060.674,-0.07170124,0.1794838,-0.1849033,0,0,0.004745051
543799,1060.678,-0.07170124,0.1794838,-0.1849033,0,0,0.005059701
543800,1060.682,-0.07177591,0.1794838,-0.1848743,0,0,0.005150604
543801,1060.687,-0.07192536,0.1794838,-0.1848162,0,0,0.00561226
543802,1060.692,-0.072,0.1794838,-0.1847872,0,0,0.00581927
543803,1060.696,-0.072,0.1794838,-0.1847872,0,0,0.006082704
543804,1060.7,-0.07207467,0.1794838,-0.1847581,0,0,0.006273746
543805,1060.705,-0.07222398,0.1794838,-0.1846997,0,0,0.006741295
543806,1060.71,-0.07229861,0.1794838,-0.1846705,0,0,0.006887126
543807,1060.714,-0.07237319,0.1794838,-0.1846413,0,0,0.006979083
543808,1060.719,-0.07244775,0.1794838,-0.1846121,0,0,0.007029894
543809,1060.724,-0.07259698,0.1794838,-0.1845534,0,0,0.007414885
543810,1060.729,-0.07267152,0.1794838,-0.1845241,0,0,0.007649091
543811,1060.734,-0.07282059,0.1794838,-0.1844653,0,0,0.007912723
543812,1060.738,-0.07282059,0.1794838,-0.1844653,0,0,0.00796835
543813,1060.743,-0.0729697,0.1794838,-0.1844064,0,0,0.007588858
543814,1060.748,-0.07304422,0.1794838,-0.1843769,0,0,0.007617628
543815,1060.752,-0.07311868,0.1794838,-0.1843474,0,0,0.007787699
543816,1060.757,-0.07319313,0.1794838,-0.1843178,0,0,0.007430354
543817,1060.761,-0.0732676,0.1794838,-0.1842882,0,0,0.007437914
543818,1060.766,-0.07334207,0.1794838,-0.1842586,0,0,0.007058076
543819,1060.77,-0.07349093,0.1794838,-0.1841993,0,0,0.007391594
543820,1060.775,-0.07356536,0.1794838,-0.1841696,0,0,0.007581234
543821,1060.78,-0.07365789,0.1794418,-0.1841735,0,0,0.007588832
543822,1060.784,-0.07373231,0.1794418,-0.1841437,0,0,0.007734551
543823,1060.788,-0.07380672,0.1794418,-0.1841139,0,0,0.007986233
543824,1060.793,-0.07395545,0.1794418,-0.1840542,0,0,0.008139713
543825,1060.798,-0.07410419,0.1794418,-0.1839944,0,0,0.008247237
543826,1060.802,-0.07410419,0.1794418,-0.1839944,0,0,0.00842717
543827,1060.807,-0.07427519,0.1793903,-0.1839757,-0.0001626669,-0.0001626669,0.008355983
543828,1060.812,-0.07442386,0.1793903,-0.1839156,-0.001804973,-0.001804973,0.007288888
543829,1060.817,-0.07449818,0.1793903,-0.1838855,0,0,0.008673769
543830,1060.821,-0.07464674,0.1793903,-0.1838253,0,0,0.009456444
543831,1060.826,-0.07474381,0.1793379,-0.183837,-0.002340737,-0.002340737,0.007502086
543832,1060.831,-0.07489241,0.1793379,-0.1837765,0,0,0.009506261
543833,1060.835,-0.07496662,0.1793379,-0.1837463,0,0,0.009900401
543834,1060.84,-0.07511507,0.1793379,-0.1836856,0,0,0.01029554
543835,1060.844,-0.07521225,0.1792853,-0.1836972,-0.003150495,-0.003150495,0.007631796
543836,1060.849,-0.07536074,0.1792853,-0.1836363,0,0,0.009990917
543837,1060.853,-0.07543489,0.1792853,-0.1836058,0,0,0.009903654
543838,1060.857,-0.07553206,0.1792327,-0.1836172,-0.003317734,-0.003317734,0.007305954
543839,1060.862,-0.07560626,0.1792327,-0.1835867,-0.003317734,-0.003317734,0.006725741
543840,1060.866,-0.07570351,0.17918,-0.183598,0,0,0.009383474
543841,1060.871,-0.0757777,0.17918,-0.1835674,-0.003715361,-0.003715361,0.005721488
543842,1060.875,-0.07587491,0.1791274,-0.1835786,0,0,0.008208075
543843,1060.879,-0.0759491,0.1791274,-0.1835479,-0.00459925,-0.00459925,0.004471225
543844,1060.884,-0.07602326,0.1791274,-0.1835172,0,0,0.007236328
543845,1060.888,-0.07602326,0.1791274,-0.1835172,0,0,0.006966635
543846,1060.893,-0.07612053,0.1790747,-0.1835282,-0.004340644,-0.004340644,0.002859659
543847,1060.897,-0.07619469,0.1790747,-0.1834974,-0.004340644,-0.004340644,0.002084495
543848,1060.901,-0.07621782,0.179022,-0.1835391,-0.004435374,-0.004435374,0.001915739
543849,1060.906,-0.07629193,0.179022,-0.1835083,-0.004435374,-0.004435374,0.001314003
543850,1060.911,-0.07629509,0.1789301,-0.183514,-0.004700428,-0.004700428,0.0006506547
543851,1060.915,-0.07629509,0.1789301,-0.183514,-0.004700428,-0.004700428,-0.003715461
543852,1060.919,-0.0763182,0.1788774,-0.1835557,-0.005075832,-0.005075832,-0.004008729
543853,1060.924,-0.07631678,0.1787766,-0.1835531,-0.006289588,-0.006289588,-0.004876271
543854,1060.928,-0.07639096,0.1787766,-0.1835223,-0.006439667,-0.006439667,-0.004990405
543855,1060.933,-0.07641408,0.1787238,-0.1835639,-0.006831279,-0.006831279,-0.003444775
543856,1060.937,-0.07641408,0.1787238,-0.1835639,-0.006831279,-0.006831279,-0.005383682
543857,1060.942,-0.07641218,0.1786221,-0.1835605,-0.006826324,-0.006826324,-0.005375119
543858,1060.947,-0.07643528,0.1785693,-0.1836021,-0.009682291,-0.009682291,-0.002739229
543859,1060.951,-0.07643528,0.1785693,-0.1836021,-0.006950253,-0.006950253,-0.005467036
543860,1060.955,-0.076399,0.1785164,-0.1836684,-0.006965179,-0.006965179,-0.004846952
543861,1060.96,-0.07632626,0.1785164,-0.1836986,-0.006989354,-0.006989354,-0.006517854
543862,1060.964,-0.07620095,0.1784634,-0.1838018,0,0,-0.007923643
543863,1060.969,-0.07610169,0.1784146,-0.1837874,-0.008643555,-0.008643555,-0.0110647
543864,1060.974,-0.07595321,0.1784146,-0.1838488,0,0,-0.009044622
543865,1060.978,-0.07577967,0.1783657,-0.1838649,-0.002789682,-0.002789682,-0.006793543
543866,1060.983,-0.07563104,0.1783657,-0.1839261,-0.002789682,-0.002789682,-0.009018754
543867,1060.987,-0.07538316,0.1783168,-0.1839723,-0.003300738,-0.003300738,-0.009164902
543868,1060.991,-0.07523449,0.1783168,-0.1840331,-0.003300738,-0.003300738,-0.01094218
543869,1060.995,-0.07498661,0.178268,-0.1840788,-0.003718495,-0.003718495,-0.01328297
543870,1060.999,-0.07476342,0.178268,-0.1841696,-0.005088367,-0.005088367,-0.01360694
543871,1061.003,-0.07451545,0.1782192,-0.1842146,-0.005448869,-0.005448869,-0.01456203
543872,1061.007,-0.07421557,0.1781176,-0.184331,-0.007357996,-0.007357996,-0.01693265
543873,1061.011,-0.07396754,0.1780689,-0.1843753,-0.00801158,-0.00801158,-0.01790733
543874,1061.016,-0.07366946,0.1780689,-0.1844946,-0.007167166,-0.007167166,-0.01795018
543875,1061.02,-0.07324778,0.1779715,-0.1845517,-0.009211015,-0.009211015,-0.01761736
543876,1061.024,-0.07275157,0.1778742,-0.1846372,-0.01158204,-0.01158204,-0.01726713
543877,1061.029,-0.07227249,0.1781268,-0.1845833,-0.00634883,-0.00634883,-0.01248595
543878,1061.034,-0.07171427,0.1783906,-0.1845474,0.01694009,0.01694009,-0.01764912
543879,1061.038,-0.07120049,0.1785485,-0.1845941,0.01827845,0.01827845,-0.01918754
543880,1061.042,-0.07065324,0.1786927,-0.1847468,0.0330992,0.0330992,-0.00722611
543881,1061.047,-0.07015717,0.1789427,-0.1849979,0.03305608,0.03305608,-0.02557812
543882,1061.052,-0.06960745,0.1791415,-0.1853189,0.05084625,0.05084625,-0.04448968
543883,1061.057,-0.06903465,0.179393,-0.1855956,0.04956249,0.04956249,-0.04953273
543884,1061.062,-0.06830888,0.1795432,-0.1859222,0.04474712,0.04474712,-0.05543322
543885,1061.067,-0.06767972,0.1797426,-0.1862646,0.0427548,0.0427548,-0.05657773
543886,1061.071,-0.06717527,0.1797916,-0.1865014,0.03777978,0.03777978,-0.06050651
543887,1061.076,-0.06654177,0.1798898,-0.1868367,0.02574805,0.02574805,-0.07165673
543888,1061.08,-0.06588572,0.1800404,-0.1871267,0.03158757,0.03158757,-0.06060502
543889,1061.085,-0.06537839,0.1800895,-0.1873585,0.0223025,0.0223025,-0.06857431
543890,1061.09,-0.06469801,0.1801911,-0.187598,0.02525988,0.02525988,-0.0586269
543891,1061.094,-0.06418908,0.1802403,-0.1878266,0.02136669,0.02136669,-0.05586158
543892,1061.099,-0.06352736,0.1802896,-0.1881052,0.01474332,0.01474332,-0.05969524
543893,1061.103,-0.06307115,0.1802896,-0.1882586,0.01348909,0.01348909,-0.05748462
543894,1061.109,-0.06227662,0.1803881,-0.1886301,0.01089443,0.01089443,-0.0541382
543895,1061.114,-0.06166651,0.1803881,-0.1888305,0.009393526,0.009393526,-0.05222474
543896,1061.118,-0.06115335,0.1804374,-0.1890507,0.008530321,0.008530321,-0.05080958
543897,1061.123,-0.06054187,0.1804374,-0.1892475,0.008209768,0.008209768,-0.04976611
543898,1061.127,-0.06010376,0.1804868,-0.1894404,0.007281521,0.007281521,-0.04805953
543899,1061.132,-0.05949107,0.1804868,-0.1896337,0.006687481,0.006687481,-0.04641565
543900,1061.136,-0.05903115,0.1804868,-0.1897774,0,0,-0.0390094
543901,1061.141,-0.05843278,0.1804449,-0.1900025,0,0,-0.03803798
543902,1061.145,-0.05799064,0.1803936,-0.1901868,-0.0009295478,-0.0009295478,-0.03764441
543903,1061.15,-0.05749157,0.1803906,-0.1904412,0.001501603,0.001501603,-0.04017284
543904,1061.154,-0.05704857,0.1803382,-0.1906241,-0.008787581,-0.008787581,-0.04796681
543905,1061.159,-0.05652788,0.1802858,-0.190829,-0.01101812,-0.01101812,-0.04310653
543906,1061.163,-0.05616083,0.1802333,-0.1909871,-0.01140535,-0.01140535,-0.04244708
543907,1061.167,-0.05573465,0.1801282,-0.1912112,-0.01221057,-0.01221057,-0.04252959
543908,1061.172,-0.05532728,0.1800725,-0.1914816,-0.0134348,-0.0134348,-0.04274883
543909,1061.176,-0.05495862,0.1800198,-0.1916373,-0.01392676,-0.01392676,-0.04587324
543910,1061.18,-0.05462716,0.1799639,-0.191884,-0.0176603,-0.0176603,-0.04755703
543911,1061.184,-0.05435314,0.1798586,-0.1920606,-0.01730398,-0.01730398,-0.04841344
543912,1061.188,-0.05411595,0.1797497,-0.1923286,-0.01820829,-0.01820829,-0.04923851
543913,1061.192,-0.0537644,0.1797464,-0.1925293,-0.01358832,-0.01358832,-0.05282151
543914,1061.196,-0.05350796,0.1796902,-0.1927521,-0.01523214,-0.01523214,-0.05472805
543915,1061.2,-0.05317294,0.1796339,-0.1929961,-0.01534067,-0.01534067,-0.05362782
543916,1061.205,-0.05291515,0.1795776,-0.193218,-0.01569083,-0.01569083,-0.05451758
543917,1061.21,-0.05259618,0.1794681,-0.1935051,-0.01627398,-0.01627398,-0.05437677
543918,1061.214,-0.052337,0.1794115,-0.1937262,-0.01399172,-0.01399172,-0.05420255
543919,1061.218,-0.0520599,0.179408,-0.1939026,-0.01388107,-0.01388107,-0.05230983
543920,1061.223,-0.05173846,0.1792982,-0.194188,-0.01419653,-0.01419653,-0.05250939
543921,1061.227,-0.0515375,0.1791917,-0.1943393,-0.01426848,-0.01426848,-0.05116382
543922,1061.231,-0.05125759,0.1790852,-0.1945109,-0.01509288,-0.01509288,-0.05182907
543923,1061.235,-0.05101258,0.1789749,-0.1947743,-0.02599003,-0.02599003,-0.04146798
543924,1061.24,-0.05081039,0.1788681,-0.194945,-0.0199641,-0.0199641,-0.0484297
543925,1061.244,-0.05046703,0.1787077,-0.1951595,-0.02842407,-0.02842407,-0.04236937
543926,1061.248,-0.05026406,0.1786007,-0.195309,-0.02919393,-0.02919393,-0.04260745
543927,1061.252,-0.05007736,0.1784399,-0.1955024,-0.0307327,-0.0307327,-0.04317478
543928,1061.257,-0.04989028,0.178279,-0.1956955,-0.03214484,-0.03214484,-0.04340507
543929,1061.261,-0.04972075,0.1781675,-0.1959364,-0.02935409,-0.02935409,-0.04498141
543930,1061.266,-0.04953267,0.1780061,-0.1961288,-0.03441931,-0.03441931,-0.04319119
543931,1061.27,-0.04942351,0.1778444,-0.196301,-0.03446468,-0.03446468,-0.04165187
543932,1061.275,-0.04925251,0.1777323,-0.1965411,-0.03307692,-0.03307692,-0.04495022
543933,1061.279,-0.04915888,0.1775162,-0.1967568,-0.03499607,-0.03499607,-0.045756
543934,1061.284,-0.04904867,0.1773538,-0.1969283,-0.03736769,-0.03736769,-0.04203137
543935,1061.288,-0.04901769,0.1771911,-0.1970798,-0.0384337,-0.0384337,-0.04127043
543936,1061.292,-0.04900271,0.1769741,-0.1972748,-0.03981038,-0.03981038,-0.04104574
543937,1061.297,-0.04898921,0.1768607,-0.1974743,-0.03844588,-0.03844588,-0.0436873
543938,1061.301,-0.04890997,0.1765883,-0.1977324,-0.04212054,-0.04212054,-0.0402284
543939,1061.306,-0.04897411,0.1763701,-0.1979069,-0.04377773,-0.04377773,-0.04121053
543940,1061.31,-0.04894209,0.1762061,-0.1980574,-0.04644414,-0.04644414,-0.04259949
543941,1061.314,-0.04900596,0.1759871,-0.1982314,-0.04661831,-0.04661831,-0.04220653
543942,1061.318,-0.04906972,0.1757677,-0.1984051,-0.04815988,-0.04815988,-0.03810158
543943,1061.323,-0.049069,0.1754929,-0.1986417,-0.04921571,-0.04921571,-0.04163802
543944,1061.327,-0.04913243,0.1752727,-0.1988147,-0.05078728,-0.05078728,-0.0427052
543945,1061.331,-0.04919575,0.1750521,-0.1989875,-0.05319484,-0.05319484,-0.04161039
543946,1061.336,-0.04924316,0.1748864,-0.1991168,-0.05305823,-0.05305823,-0.04139344
543947,1061.34,-0.0493378,0.1745543,-0.1993749,-0.05464154,-0.05464154,-0.04240257
543948,1061.345,-0.04941647,0.1742769,-0.1995896,-0.05516807,-0.05516807,-0.04262158
543949,1061.349,-0.04947928,0.1740545,-0.1997609,-0.0558367,-0.0558367,-0.0429851
543950,1061.354,-0.04955763,0.1737761,-0.1999746,-0.0576946,-0.0576946,-0.04421829
543951,1061.358,-0.0496358,0.173497,-0.2001878,-0.05832959,-0.05832959,-0.04450632
543952,1061.362,-0.04972935,0.1731613,-0.200443,-0.05862435,-0.05862435,-0.04453222
543953,1061.367,-0.0497916,0.172937,-0.2006128,-0.06127753,-0.06127753,-0.04634027
543954,1061.372,-0.04988471,0.1725999,-0.2008668,-0.06275605,-0.06275605,-0.04720445
543955,1061.376,-0.04996212,0.1723183,-0.201078,-0.06286183,-0.06286183,-0.04711495
543956,1061.381,-0.05003933,0.1720362,-0.2012886,-0.06336208,-0.06336208,-0.04723509
543957,1061.385,-0.05011638,0.1717534,-0.2014988,-0.06444646,-0.06444646,-0.04782824
543958,1061.39,-0.05019321,0.17147,-0.2017084,-0.06477026,-0.06477026,-0.04785291
543959,1061.394,-0.05026988,0.1711861,-0.2019175,-0.06579055,-0.06579055,-0.04838839
543960,1061.399,-0.05034634,0.1709016,-0.2021261,-0.06506307,-0.06506307,-0.04759502
543961,1061.403,-0.05050327,0.1705593,-0.2023594,-0.0653246,-0.0653246,-0.04756537
543962,1061.408,-0.0505946,0.1702163,-0.2026083,-0.06618514,-0.06618514,-0.04793099
543963,1061.413,-0.05073566,0.1699871,-0.2027538,-0.06748103,-0.06748103,-0.04845156
543964,1061.417,-0.05092365,0.1695852,-0.203022,-0.06862263,-0.06862263,-0.04667709
543965,1061.421,-0.05099929,0.1692974,-0.2032277,-0.06953802,-0.06953802,-0.04705786
543966,1061.425,-0.05123907,0.1690091,-0.2033914,-0.07052526,-0.07052526,-0.04668919
543967,1061.43,-0.05142691,0.1686044,-0.2036568,-0.07270753,-0.07270753,-0.04769296
543968,1061.434,-0.05166692,0.1683146,-0.2038189,-0.07308032,-0.07308032,-0.04675724
543969,1061.439,-0.05193706,0.167908,-0.2040613,-0.07514472,-0.07514472,-0.04598166
543970,1061.444,-0.05222568,0.16755,-0.2043518,-0.07682639,-0.07682639,-0.04573258
543971,1061.448,-0.05258207,0.1672492,-0.2045796,-0.07830054,-0.07830054,-0.0447331
543972,1061.453,-0.05301806,0.1668394,-0.2047753,-0.07967222,-0.07967222,-0.04310529
543973,1061.458,-0.05347313,0.1664782,-0.2050185,-0.08011697,-0.08011697,-0.04099341
543974,1061.463,-0.05402673,0.1660569,-0.2052778,-0.07904642,-0.07904642,-0.04772066
543975,1061.467,-0.05453203,0.1657027,-0.2054058,-0.07900158,-0.07900158,-0.04416165
543976,1061.472,-0.05517005,0.1652789,-0.2056378,-0.08176856,-0.08176856,-0.04240138
543977,1061.476,-0.05577476,0.1648634,-0.205778,-0.08512345,-0.08512345,-0.0413774
543978,1061.481,-0.05651298,0.1643773,-0.2060198,-0.09109028,-0.09109028,-0.0406938
543979,1061.485,-0.05711907,0.1639593,-0.2061538,-0.09302171,-0.09302171,-0.0394034
543980,1061.49,-0.05792294,0.1634202,-0.2063151,-0.1011314,-0.1011314,-0.03182402
543981,1061.494,-0.05861374,0.1629997,-0.2064189,-0.1020027,-0.1020027,-0.02941659
543982,1061.499,-0.05950273,0.1624575,-0.2065473,-0.1050368,-0.1050368,-0.02891173
543983,1061.503,-0.06017942,0.162095,-0.2066056,-0.1062288,-0.1062288,-0.02586048
543984,1061.508,-0.06100203,0.1614892,-0.2067867,-0.1071316,-0.1071316,-0.02481746
543985,1061.512,-0.06177897,0.1610638,-0.2068504,-0.1062182,-0.1062182,-0.02256654
543986,1061.517,-0.06273926,0.1605763,-0.2068966,-0.1071407,-0.1071407,-0.01996776
543987,1061.521,-0.06345481,0.1601984,-0.2070266,-0.1056385,-0.1056385,-0.01936072
543988,1061.526,-0.06443243,0.159647,-0.2070992,-0.1055058,-0.1055058,-0.01664389
543989,1061.53,-0.0652332,0.1592666,-0.2071947,-0.1055616,-0.1055616,-0.01555899
543990,1061.535,-0.06631774,0.1587619,-0.2072783,-0.09974226,-0.09974226,-0.01642797
543991,1061.539,-0.0672259,0.1584291,-0.2073862,-0.0973253,-0.0973253,-0.01692735
543992,1061.544,-0.06829698,0.1579834,-0.2074209,-0.09692234,-0.09692234,-0.01444984
543993,1061.549,-0.06920747,0.1576485,-0.2075182,-0.09338509,-0.09338509,-0.0157404
543994,1061.553,-0.07030303,0.1572502,-0.2075892,-0.09203791,-0.09203791,-0.01559054
543995,1061.557,-0.07119972,0.1569757,-0.2076407,-0.08882794,-0.08882794,-0.01561329
543996,1061.562,-0.07242073,0.1565627,-0.2077533,-0.08695497,-0.08695497,-0.0137863
543997,1061.566,-0.07325205,0.1562238,-0.2078581,-0.08361906,-0.08361906,-0.01388345
543998,1061.571,-0.07435274,0.155821,-0.2079032,-0.08060481,-0.08060481,-0.01334798
543999,1061.576,-0.07550136,0.1555174,-0.2080381,-0.07969043,-0.07969043,-0.01376107
544000,1061.581,-0.0766284,0.1551625,-0.2081171,-0.07675561,-0.07675561,-0.01386234
544001,1061.586,-0.07775684,0.1548065,-0.2081889,-0.07472337,-0.07472337,-0.01500309
544002,1061.591,-0.07882664,0.1544999,-0.2083333,-0.07111502,-0.07111502,-0.01504258
544003,1061.596,-0.07988148,0.1542562,-0.2084379,-0.06798016,-0.06798016,-0.01542218
544004,1061.6,-0.08095456,0.153948,-0.2085691,-0.0652851,-0.0652851,-0.0158093
544005,1061.605,-0.08181035,0.153831,-0.2086617,-0.06148431,-0.06148431,-0.01767984
544006,1061.61,-0.0828696,0.1535857,-0.2087485,-0.05514058,-0.05514058,-0.01905178
544007,1061.614,-0.08374454,0.153404,-0.2088644,-0.04963394,-0.04963394,-0.01963331
