Frame,Time,Cursor Position X,Cursor Position Y,Cursor Position Z,Cursor Velocity X,Cursor Velocity Y,Cursor Velocity Z
1,0,0,0,0,0,0,0
2,0.02,-0.008902279,-0.06101471,-0.03411243,0,0,0
3,0.033365,-0.008902279,-0.06101471,-0.03411243,0,0,0
4,0.0394865,-0.008902279,-0.06101471,-0.03411243,0,0,0
5,0.0443252,-0.008902279,-0.06101471,-0.03411243,0,0,0
6,0.0476797,-0.008902279,-0.06101471,-0.03411243,0,0,0
7,0.0496141,-0.008902279,-0.06101471,-0.03411243,0,0,0
8,0.0514769,-0.008902279,-0.06101471,-0.03411243,0,0,0
9,0.0534144,-0.008902279,-0.06101471,-0.03411243,0,0,0
10,0.0557803,-0.008902279,-0.06101471,-0.03411243,0,0,0
11,0.0577083,-0.008902279,-0.06101471,-0.03411243,0,0,0
12,0.059576,-0.008902279,-0.06101471,-0.03411243,0,0,0
13,0.0617937,-0.008902279,-0.06101471,-0.03411243,0,0,0
14,0.0655254,-0.008902279,-0.06101471,-0.03411243,0,0,0
15,0.0675019,-0.008902279,-0.06101471,-0.03411243,0,0,0
16,0.0698134,-0.008902279,-0.06101471,-0.03411243,0,0,0
17,0.0720145,-0.008902279,-0.06101471,-0.03411243,0,0,0
18,0.0740565,-0.008902279,-0.06101471,-0.03411243,0,0,0
19,0.0827534,-0.008902279,-0.06101471,-0.03411243,0,0,0
20,0.0858279,-0.008902279,-0.06101471,-0.03411243,0,0,0
21,0.0878205,-0.008902279,-0.06101471,-0.03411243,0,0,0
22,0.0896775,-0.008902279,-0.06101471,-0.03411243,0,0,0
23,0.0915437,-0.008902279,-0.06101471,-0.03411243,0,0,0
24,0.0933685,-0.008902279,-0.06101471,-0.03411243,0,0,0
25,0.0956155,-0.008902279,-0.06101471,-0.03411243,0,0,0
26,0.0993096,-0.008902279,-0.06101471,-0.03411243,0,0,0
27,0.1012703,-0.008902279,-0.06101471,-0.03411243,0,0,0
28,0.1043213,-0.008902279,-0.06101471,-0.03411243,0,0,0
29,0.1066889,-0.008902279,-0.06101471,-0.03411243,0,0,0
30,0.1084971,-0.008902279,-0.06101471,-0.03411243,0,0,0
31,0.1103052,-0.008902279,-0.06101471,-0.03411243,0,0,0
32,0.1140743,-0.008902279,-0.06101471,-0.03411243,0,0,0
33,0.1163096,-0.008902279,-0.06101471,-0.03411243,0,0,0
34,0.118508,-0.008902279,-0.06101471,-0.03411243,0,0,0
35,0.1204271,-0.008902279,-0.06101471,-0.03411243,0,0,0
36,0.1229465,-0.008902279,-0.06101471,-0.03411243,0,0,0
37,0.1248823,-0.008902279,-0.06101471,-0.03411243,0,0,0
38,0.1267106,-0.008902279,-0.06101471,-0.03411243,0,0,0
39,0.1286025,-0.008902279,-0.06101471,-0.03411243,0,0,0
40,0.1324981,-0.008902279,-0.06101471,-0.03411243,0,0,0
41,0.1345252,-0.008902279,-0.06101471,-0.03411243,0,0,0
42,0.1369197,-0.008902279,-0.06101471,-0.03411243,0,0,0
43,0.1388352,-0.008902279,-0.06101471,-0.03411243,0,0,0
44,0.1408332,-0.008902279,-0.06101471,-0.03411243,0,0,0
45,0.1431869,-0.008902279,-0.06101471,-0.03411243,0,0,0
46,0.145246,-0.008902279,-0.06101471,-0.03411243,0,0,0
47,0.1491839,-0.008902279,-0.06101471,-0.03411243,0,0,0
48,0.1513021,-0.008902279,-0.06101471,-0.03411243,0,0,0
49,0.1531882,-0.008902279,-0.06101471,-0.03411243,0,0,0
50,0.1551958,-0.008902279,-0.06101471,-0.03411243,0,0,0
51,0.1571021,-0.008902279,-0.06101471,-0.03411243,0,0,0
52,0.1588755,-0.008902279,-0.06101471,-0.03411243,0,0,0
53,0.1606974,-0.008902279,-0.06101471,-0.03411243,0,0,0
54,0.1637862,-0.008902279,-0.06101471,-0.03411243,0,0,0
55,0.1657069,-0.008902279,-0.06101471,-0.03411243,0,0,0
56,0.1675875,-0.008902279,-0.06101471,-0.03411243,0,0,0
57,0.1693353,-0.008902279,-0.06101471,-0.03411243,0,0,0
58,0.1712067,-0.008902279,-0.06101471,-0.03411243,0,0,0
59,0.1730613,-0.008902279,-0.06101471,-0.03411243,0,0,0
60,0.1750921,-0.008902279,-0.06101471,-0.03411243,0,0,0
61,0.1776994,-0.008902279,-0.06101471,-0.03411243,0,0,0
62,0.1805311,-0.008902279,-0.06101471,-0.03411243,0,0,0
63,0.1827756,-0.008902279,-0.06101471,-0.03411243,0,0,0
64,0.1846969,-0.008902279,-0.06101471,-0.03411243,0,0,0
65,0.1872471,-0.008902279,-0.06101471,-0.03411243,0,0,0
66,0.1891146,-0.008902279,-0.06101471,-0.03411243,0,0,0
67,0.1909104,-0.008902279,-0.06101471,-0.03411243,0,0,0
68,0.1928896,-0.008902279,-0.06101471,-0.03411243,0,0,0
69,0.1950485,-0.008902279,-0.06101471,-0.03411243,0,0,0
70,0.197144,-0.008902279,-0.06101471,-0.03411243,0,0,0
71,0.199746,-0.008902279,-0.06101471,-0.03411243,0,0,0
72,0.2023807,-0.008902279,-0.06101471,-0.03411243,0,0,0
73,0.2045886,-0.008902279,-0.06101471,-0.03411243,0,0,0
74,0.2064647,-0.008902279,-0.06101471,-0.03411243,0,0,0
75,0.2083543,-0.008902279,-0.06101471,-0.03411243,0,0,0
76,0.2101812,-0.008902279,-0.06101471,-0.03411243,0,0,0
77,0.2120562,-0.008902279,-0.06101471,-0.03411243,0,0,0
78,0.2151189,-0.008902279,-0.06101471,-0.03411243,0,0,0
79,0.2171375,-0.008902279,-0.06101471,-0.03411243,0,0,0
80,0.2189823,-0.008902279,-0.06101471,-0.03411243,0,0,0
81,0.2208431,-0.008902279,-0.06101471,-0.03411243,0,0,0
82,0.2237107,-0.008902279,-0.06101471,-0.03411243,0,0,0
83,0.225757,-0.008902279,-0.06101471,-0.03411243,0,0,0
84,0.2276493,-0.008902279,-0.06101471,-0.03411243,0,0,0
85,0.2361501,-0.008902279,-0.06101471,-0.03411243,0,0,0
86,0.2450161,-0.008902279,-0.06101471,-0.03411243,0,0,0
87,0.2536461,-0.008902279,-0.06101471,-0.03411243,0,0,0
88,0.2557553,-0.008902279,-0.06101471,-0.03411243,0,0,0
89,0.2582333,-0.008902279,-0.06101471,-0.03411243,0,0,0
90,0.2602379,-0.008902279,-0.06101471,-0.03411243,0,0,0
91,0.2624619,-0.008902279,-0.06101471,-0.03411243,0,0,0
92,0.2653637,-0.008902279,-0.06101471,-0.03411243,0,0,0
93,0.2695176,-0.008902279,-0.06101471,-0.03411243,0,0,0
94,0.2715501,-0.008902279,-0.06101471,-0.03411243,0,0,0
95,0.2736469,-0.008902279,-0.06101471,-0.03411243,0,0,0
96,0.2757097,-0.008902279,-0.06101471,-0.03411243,0,0,0
97,0.2776904,-0.008902279,-0.06101471,-0.03411243,0,0,0
98,0.2796337,-0.008902279,-0.06101471,-0.03411243,0,0,0
99,0.2819034,-0.008902279,-0.06101471,-0.03411243,0,0,0
100,0.2842703,-0.008902279,-0.06101471,-0.03411243,0,0,0
101,0.2861976,-0.008902279,-0.06101471,-0.03411243,0,0,0
102,0.2880875,-0.008902279,-0.06101471,-0.03411243,0,0,0
103,0.2901333,-0.008902279,-0.06101471,-0.03411243,0,0,0
104,0.2920898,-0.008902279,-0.06101471,-0.03411243,0,0,0
105,0.2939926,-0.008902279,-0.06101471,-0.03411243,0,0,0
106,0.2958936,-0.008902279,-0.06101471,-0.03411243,0,0,0
107,0.2979891,-0.008902279,-0.06101471,-0.03411243,0,0,0
108,0.3005192,-0.008902279,-0.06101471,-0.03411243,0,0,0
109,0.3029015,-0.008902279,-0.06101471,-0.03411243,0,0,0
110,0.3048684,-0.008902279,-0.06101471,-0.03411243,0,0,0
111,0.3068583,-0.008902279,-0.06101471,-0.03411243,0,0,0
112,0.3279585,-0.008902279,-0.06101471,-0.03411243,0,0,0
113,0.3311257,-0.008902279,-0.06101471,-0.03411243,0,0,0
114,0.3332893,-0.008902279,-0.06101471,-0.03411243,0,0,0
115,0.335629,-0.008902279,-0.06101471,-0.03411243,0,0,0
116,0.3379378,-0.008902279,-0.06101471,-0.03411243,0,0,0
117,0.3402038,-0.008902279,-0.06101471,-0.03411243,0,0,0
118,0.343262,-0.008902279,-0.06101471,-0.03411243,0,0,0
119,0.345534,-0.008902279,-0.06101471,-0.03411243,0,0,0
120,0.3478251,-0.008902279,-0.06101471,-0.03411243,0,0,0
121,0.3503812,-0.008902279,-0.06101471,-0.03411243,0,0,0
122,0.3526433,-0.008902279,-0.06101471,-0.03411243,0,0,0
123,0.3548667,-0.008902279,-0.06101471,-0.03411243,0,0,0
124,0.3570891,-0.008902279,-0.06101471,-0.03411243,0,0,0
125,0.3593431,-0.008902279,-0.06101471,-0.03411243,0,0,0
126,0.3621187,-0.008902279,-0.06101471,-0.03411243,0,0,0
127,0.3651688,-0.008902279,-0.06101471,-0.03411243,0,0,0
128,0.3674063,-0.008902279,-0.06101471,-0.03411243,0,0,0
129,0.3696012,-0.008902279,-0.06101471,-0.03411243,0,0,0
130,0.3717483,-0.008902279,-0.06101471,-0.03411243,0,0,0
131,0.3740345,-0.008902279,-0.06101471,-0.03411243,0,0,0
132,0.3762631,-0.008902279,-0.06101471,-0.03411243,0,0,0
133,0.3785794,-0.008902279,-0.06101471,-0.03411243,0,0,0
134,0.3816927,-0.008902279,-0.06101471,-0.03411243,0,0,0
135,0.3845623,-0.008902279,-0.06101471,-0.03411243,0,0,0
136,0.3868286,-0.008902279,-0.06101471,-0.03411243,0,0,0
137,0.389361,-0.008902279,-0.06101471,-0.03411243,0,0,0
138,0.391787,-0.008902279,-0.06101471,-0.03411243,0,0,0
139,0.3941769,-0.008902279,-0.06101471,-0.03411243,0,0,0
140,0.3966804,-0.008902279,-0.06101471,-0.03411243,0,0,0
141,0.3993082,-0.008902279,-0.06101471,-0.03411243,0,0,0
142,0.4018231,-0.008902279,-0.06101471,-0.03411243,0,0,0
143,0.405778,-0.008902279,-0.06101471,-0.03411243,0,0,0
144,0.4081687,-0.008902279,-0.06101471,-0.03411243,0,0,0
145,0.4103684,-0.008902279,-0.06101471,-0.03411243,0,0,0
146,0.412654,-0.008902279,-0.06101471,-0.03411243,0,0,0
147,0.4154164,-0.008902279,-0.06101471,-0.03411243,0,0,0
148,0.4178475,-0.008902279,-0.06101471,-0.03411243,0,0,0
149,0.4204754,-0.008902279,-0.06101471,-0.03411243,0,0,0
150,0.423844,-0.008902279,-0.06101471,-0.03411243,0,0,0
151,0.4261535,-0.008902279,-0.06101471,-0.03411243,0,0,0
152,0.4288761,-0.008902279,-0.06101471,-0.03411243,0,0,0
153,0.4316888,-0.008902279,-0.06101471,-0.03411243,0,0,0
154,0.4340615,-0.008902279,-0.06101471,-0.03411243,0,0,0
155,0.4366283,-0.008902279,-0.06101471,-0.03411243,0,0,0
156,0.4398136,-0.008902279,-0.06101471,-0.03411243,0,0,0
157,0.4420841,-0.008902279,-0.06101471,-0.03411243,0,0,0
158,0.4447482,-0.008902279,-0.06101471,-0.03411243,0,0,0
159,0.4469612,-0.008902279,-0.06101471,-0.03411243,0,0,0
160,0.4495899,-0.008902279,-0.06101471,-0.03411243,0,0,0
161,0.4519271,-0.008902279,-0.06101471,-0.03411243,0,0,0
162,0.4543087,-0.008902279,-0.06101471,-0.03411243,0,0,0
163,0.4566416,-0.008902279,-0.06101471,-0.03411243,0,0,0
164,0.4590149,-0.008902279,-0.06101471,-0.03411243,0,0,0
165,0.4612197,-0.008902279,-0.06101471,-0.03411243,0,0,0
166,0.4638533,-0.008902279,-0.06101471,-0.03411243,0,0,0
167,0.4661545,-0.008902279,-0.06101471,-0.03411243,0,0,0
168,0.4683223,-0.008902279,-0.06101471,-0.03411243,0,0,0
169,0.4706484,-0.008902279,-0.06101471,-0.03411243,0,0,0
170,0.473168,-0.008902279,-0.06101471,-0.03411243,0,0,0
171,0.4753786,-0.008902279,-0.06101471,-0.03411243,0,0,0
172,0.4776387,-0.008902279,-0.06101471,-0.03411243,0,0,0
173,0.4804954,-0.008902279,-0.06101471,-0.03411243,0,0,0
174,0.4832956,-0.008902279,-0.06101471,-0.03411243,0,0,0
175,0.4855774,-0.008902279,-0.06101471,-0.03411243,0,0,0
176,0.48787,-0.008902279,-0.06101471,-0.03411243,0,0,0
177,0.4902073,-0.008902279,-0.06101471,-0.03411243,0,0,0
178,0.4925704,-0.008902279,-0.06101471,-0.03411243,0,0,0
179,0.4951126,-0.008902279,-0.06101471,-0.03411243,0,0,0
180,0.4977393,-0.008902279,-0.06101471,-0.03411243,0,0,0
181,0.5004141,-0.008902279,-0.06101471,-0.03411243,0,0,0
182,0.5031749,-0.008902279,-0.06101471,-0.03411243,0,0,0
183,0.5056073,-0.008902279,-0.06101471,-0.03411243,0,0,0
184,0.5079332,-0.008902279,-0.06101471,-0.03411243,0,0,0
185,0.510423,-0.008902279,-0.06101471,-0.03411243,0,0,0
186,0.5135278,-0.008902279,-0.06101471,-0.03411243,0,0,0
187,0.5161407,-0.008902279,-0.06101471,-0.03411243,0,0,0
188,0.5186681,-0.008902279,-0.06101471,-0.03411243,0,0,0
189,0.521188,-0.008902279,-0.06101471,-0.03411243,0,0,0
190,0.5246207,-0.008902279,-0.06101471,-0.03411243,0,0,0
191,0.526859,-0.008902279,-0.06101471,-0.03411243,0,0,0
192,0.5291419,-0.008902279,-0.06101471,-0.03411243,0,0,0
193,0.5314731,-0.008902279,-0.06101471,-0.03411243,0,0,0
194,0.5366386,-0.008902279,-0.06101471,-0.03411243,0,0,0
195,0.5393241,-0.008902279,-0.06101471,-0.03411243,0,0,0
196,0.5422603,-0.008902279,-0.06101471,-0.03411243,0,0,0
197,0.5453739,-0.0088885,-0.06101471,-0.03411603,0,0,-3.837043E-07
198,0.5501762,-0.0088885,-0.06101471,-0.03411603,0,0,-3.837043E-07
199,0.5533709,-0.008922573,-0.06096771,-0.03415463,7.224714E-05,7.224714E-05,-5.456579E-05
200,0.5558786,-0.009011596,-0.0609536,-0.0342335,0.0001440957,0.0001440957,-0.0007454435
201,0.5583503,-0.009059415,-0.06090653,-0.03426851,0.0002146628,0.0002146628,-0.0008055308
202,0.5608173,-0.009093352,-0.06085944,-0.03430717,0.0002855224,0.0002855224,-0.0008614173
203,0.563886,-0.009141114,-0.06081235,-0.03434216,0.01790745,0.01790745,-0.01396252
204,0.5662365,-0.009188849,-0.06076524,-0.03437714,0.01716493,0.01716493,-0.0134013
205,0.5685105,-0.009222656,-0.06071806,-0.03441583,0.01743597,0.01743597,-0.0135884
206,0.5706836,-0.00927035,-0.06067091,-0.03445081,0.01743597,0.01743597,-0.0135884
207,0.5729925,-0.00927035,-0.06067091,-0.03445081,0.01696095,0.01696095,-0.01322773
208,0.5751957,-0.009256427,-0.06067091,-0.03445455,0.01696095,0.01696095,-0.01256572
209,0.5774328,-0.009256427,-0.06067091,-0.03445455,0.01696095,0.01696095,-0.01317179
210,0.5797788,-0.009256427,-0.06067091,-0.03445455,0,0,-0.0005991387
211,0.5821194,-0.009256427,-0.06067091,-0.03445455,0,0,-0.0005991387
212,0.585216,-0.009256427,-0.06067091,-0.03445455,0,0,0
213,0.5874705,-0.009256427,-0.06067091,-0.03445455,0,0,0
214,0.5896459,-0.009256427,-0.06067091,-0.03445455,0,0,0
215,0.5917672,-0.009256427,-0.06067091,-0.03445455,0,0,0
216,0.5938534,-0.009256427,-0.06067091,-0.03445455,0,0,0
217,0.5961459,-0.009256427,-0.06067091,-0.03445455,0,0,0
218,0.5983986,-0.009218295,-0.06070864,-0.03442656,0.001642432,0.001642432,-0.001218402
219,0.6005272,-0.009218295,-0.06070864,-0.03442656,0.001642432,0.001642432,-0.001218402
220,0.603018,-0.009218295,-0.06070864,-0.03442656,0,0,0
221,0.605163,-0.009218295,-0.06070864,-0.03442656,0,0,0
222,0.6073688,-0.009218295,-0.06070864,-0.03442656,0,0,0
223,0.6095286,-0.009218295,-0.06070864,-0.03442656,0,0,0
224,0.6115813,-0.009229423,-0.06070864,-0.03442358,0,0,0
225,0.6139062,-0.009229423,-0.06070864,-0.03442358,0,0,0
226,0.6160947,-0.009131627,-0.06065014,-0.03435186,0,0,0
227,0.6185289,-0.008920272,-0.06059752,-0.03419685,0.001102638,0.001102638,0.003283384
228,0.6207859,-0.008810543,-0.06053145,-0.03411637,0.002054457,0.002054457,0.004436027
229,0.623373,-0.008762923,-0.06057845,-0.03408144,0.001225193,0.001225193,0.005053158
230,0.6256037,-0.008708067,-0.06054536,-0.03404121,0.001508094,0.001508094,0.005396164
231,0.6277601,-0.008543602,-0.06044593,-0.03392059,0.01947612,0.01947612,0.03063279
232,0.6300488,-0.008434027,-0.06037951,-0.03384023,0.01923233,0.01923233,0.03023918
233,0.6322621,-0.008276771,-0.06035997,-0.0337249,0.0236646,0.0236646,0.03631237
234,0.6344347,-0.008167324,-0.06029329,-0.03364462,0.02451583,0.02451583,0.03725271
235,0.636607,-0.007955462,-0.06024002,-0.03348924,0.02334425,0.02334425,0.03759499
236,0.6387782,-0.007798371,-0.06021997,-0.03337403,0.01950338,0.01950338,0.04165681
237,0.6409251,-0.007521089,-0.06013253,-0.03318123,0.02644764,0.02644764,0.05253463
238,0.6434941,-0.007364165,-0.060112,-0.03306606,0.02716888,0.02716888,0.05486375
239,0.6457584,-0.007050418,-0.06007051,-0.03283579,0.02091777,0.02091777,0.05909069
240,0.6479345,-0.006941475,-0.06000274,-0.03275584,0.01983877,0.01983877,0.06108935
241,0.6500631,-0.006675859,-0.05991359,-0.0325609,0.02142617,0.02142617,0.06087327
242,0.6522593,-0.006471277,-0.05993885,-0.03241075,0.02264975,0.02264975,0.06658711
243,0.6544159,-0.006205973,-0.05984883,-0.03221604,0.02372442,0.02372442,0.0704198
244,0.6566285,-0.00579687,-0.0598979,-0.03191579,0.01404009,0.01404009,0.07897988
245,0.6587195,-0.005538081,-0.05988759,-0.03172586,0.01252919,0.01252919,0.08130643
246,0.6608833,-0.005219109,-0.05976129,-0.03149176,0.006797153,0.006797153,0.09769469
247,0.6636715,-0.004846445,-0.05959937,-0.03121825,0.01824865,0.01824865,0.1018623
248,0.6658479,-0.004722815,-0.05945778,-0.03112752,0.04040659,0.04040659,0.08763532
249,0.668024,-0.004607985,-0.05930762,-0.03104324,0.05312991,0.05312991,0.07021838
250,0.6703119,-0.004392248,-0.05916753,-0.03088491,0.05870061,0.05870061,0.06634019
251,0.6725238,-0.004138195,-0.05906406,-0.03069845,0.05562871,0.05562871,0.06894382
252,0.6751164,-0.003875795,-0.05896834,-0.03050587,0.05301448,0.05301448,0.07102457
253,0.6773724,-0.003666463,-0.05890837,-0.03035224,0.0518898,0.0518898,0.07205808
254,0.6795794,-0.003451639,-0.05876645,-0.03019457,0.04886672,0.04886672,0.07250544
255,0.6817307,-0.003296183,-0.05874145,-0.03008048,0.04327376,0.04327376,0.06753303
256,0.6843182,-0.003087135,-0.05868065,-0.02992706,0.0426034,0.0426034,0.06834162
257,0.6864957,-0.002979941,-0.05860919,-0.02984839,0.03741784,0.03741784,0.06248689
258,0.6886284,-0.002878194,-0.05861948,-0.02977371,0.03131714,0.03131714,0.0571761
259,0.6908545,-0.002834488,-0.05858369,-0.02973348,0.0235251,0.0235251,0.04857229
260,0.6931592,-0.002780945,-0.05854787,-0.02969421,0.007158101,0.007158101,0.03059928
261,0.6953379,-0.002780945,-0.05854787,-0.02969421,0.01937415,0.01937415,0.02122608
262,0.6976221,-0.002690954,-0.05855802,-0.02961853,0.00592924,0.00592924,0.02220919
263,0.6999785,-0.002702903,-0.05855802,-0.02961744,0.00592924,0.00592924,0.02221449
264,0.7028269,-0.002613019,-0.05856815,-0.02954184,0.004608593,0.004608593,0.02216574
265,0.7055273,-0.002624949,-0.05856815,-0.02954078,0.003353498,0.003353498,0.02080663
266,0.7078319,-0.002636895,-0.05856815,-0.02953972,0.003353498,0.003353498,0.02081148
267,0.7100171,-0.002648826,-0.05856815,-0.02953865,0,0,0.00034526
268,0.7121802,-0.002660763,-0.05856815,-0.02953758,0,0,0.0003468222
269,0.7143655,-0.002672692,-0.05856815,-0.0295365,0,0,0.0003886901
270,0.7165806,-0.002684634,-0.05856815,-0.02953542,0,0,0.0004033407
271,0.7260542,-0.002714393,-0.05853221,-0.02948881,0.002899636,0.002899636,0.003777974
272,0.7345332,-0.002932646,-0.0584044,-0.02957801,0.00282533,0.00282533,-0.001259684
273,0.741388,-0.003511608,-0.05826306,-0.02992371,0.02846316,0.02846316,-0.02724933
274,0.7561379,-0.004327528,-0.05818844,-0.0304229,0.01089011,0.01089011,-0.06038649
275,0.7591536,-0.006052333,-0.05826336,-0.03149873,-0.004144774,-0.004144774,-0.09349124
276,0.7613943,-0.006387362,-0.05822745,-0.03171084,-0.006581455,-0.006581455,-0.0977862
277,0.764295,-0.007016602,-0.05828267,-0.03210426,-0.01020372,-0.01020372,-0.1015535
278,0.7670649,-0.007530959,-0.05834851,-0.03242701,-0.009572101,-0.009572101,-0.1086383
279,0.7693459,-0.007922808,-0.05834436,-0.03267525,-0.01064345,-0.01064345,-0.1104112
280,0.7714972,-0.008280142,-0.05838671,-0.03288606,-0.01071298,-0.01071298,-0.1112607
281,0.7736952,-0.008721327,-0.05833358,-0.03316652,-0.00851266,-0.00851266,-0.11081
282,0.7757669,-0.009059183,-0.05829303,-0.03337451,-0.006694882,-0.006694882,-0.1108012
283,0.77814,-0.009618375,-0.05822417,-0.03372125,-1.464825E-05,-1.464825E-05,-0.112711
284,0.780706,-0.01012259,-0.05812004,-0.03402825,0.0102052,0.0102052,-0.1141911
285,0.7833526,-0.01046158,-0.05807707,-0.03423395,0.01567229,0.01567229,-0.1090718
286,0.7855356,-0.01079305,-0.05795208,-0.03443372,0.02388802,0.02388802,-0.1067886
287,0.7877477,-0.01122838,-0.05781165,-0.03470383,0.0328032,0.0328032,-0.111362
288,0.7901114,-0.01181544,-0.05760667,-0.03507658,0.04549314,0.04549314,-0.1123043
289,0.792303,-0.01219478,-0.05743068,-0.03530637,0.05560815,0.05560815,-0.1199991
290,0.7944622,-0.01263016,-0.05728684,-0.03557344,0.07071946,0.07071946,-0.1238974
291,0.7972461,-0.01331197,-0.05697948,-0.036007,0.07596166,0.07596166,-0.1268934
292,0.7995816,-0.0137711,-0.05670211,-0.03630345,0.08661163,0.08661163,-0.1318845
293,0.8018047,-0.01445714,-0.05630805,-0.03672149,0.09962791,0.09962791,-0.1373702
294,0.8042979,-0.01497109,-0.05605958,-0.03705334,0.1116331,0.1116331,-0.1449768
295,0.8065328,-0.01553135,-0.05575977,-0.03741588,0.1234917,0.1234917,-0.1507178
296,0.8086305,-0.01609069,-0.0554579,-0.03777717,0.1337636,0.1337636,-0.1569313
297,0.810674,-0.01663918,-0.0550718,-0.03813049,0.1402644,0.1402644,-0.157767
298,0.8129484,-0.01750059,-0.0545456,-0.03867654,0.1636119,0.1636119,-0.1713354
299,0.8150894,-0.01808671,-0.05418569,-0.03907137,0.1672975,0.1672975,-0.1731957
300,0.8171656,-0.01873313,-0.05377239,-0.03948851,0.1763772,0.1763772,-0.1782977
301,0.8192648,-0.01933211,-0.05340737,-0.03987299,0.1938317,0.1938317,-0.1880604
302,0.821464,-0.02000463,-0.05293708,-0.04032523,0.202173,0.202173,-0.195151
303,0.8239957,-0.02103114,-0.05226673,-0.04099587,0.204199,0.204199,-0.1994457
304,0.8266899,-0.02169771,-0.05178802,-0.04144372,0.2206058,0.2206058,-0.2077589
305,0.8289844,-0.02275593,-0.05113596,-0.04215471,0.2235917,0.2235917,-0.2120448
306,0.8312873,-0.02347333,-0.05067933,-0.0426367,0.2285399,0.2285399,-0.2164656
307,0.8334633,-0.02417534,-0.0501357,-0.04310836,0.2367594,0.2367594,-0.2237519
