Frame,Time,Cursor Position X,Cursor Position Y,Cursor Position Z,Cursor Velocity X,Cursor Velocity Y,Cursor Velocity Z
1,0,0,0,0,0,0,0
2,0.02,-0.1140207,0.04762937,-0.08298925,-0.03377709,-0.03377709,-0.01274762
3,0.0365052,-0.1142297,0.04692483,-0.08352478,-0.0397975,-0.0397975,-0.03471651
4,0.0452151,-0.1144791,0.04657309,-0.08365241,-0.04194872,-0.04194872,-0.01362306
5,0.0536241,-0.1147249,0.04622042,-0.08366494,-0.04330242,-0.04330242,-0.01390175
6,0.0589395,-0.1149112,0.04593891,-0.08376011,-0.04279786,-0.04279786,-0.01407961
7,0.064035,-0.1149714,0.04572637,-0.08379088,-0.04301219,-0.04301219,-0.01329971
8,0.0693973,-0.1150677,0.04551494,-0.08389126,-0.04412122,-0.04412122,-0.01139008
9,0.0748273,-0.1150239,0.04515976,-0.08405899,-0.04593082,-0.04593082,-0.01655444
10,0.0880665,-0.114802,0.0445191,-0.0844565,-0.04969146,-0.04969146,-0.02585468
11,0.0945943,-0.1147939,0.04416233,-0.08445232,-0.05101192,-0.05101192,-0.02578758
12,0.0999093,-0.1147869,0.04387683,-0.08444871,-0.05248052,-0.05248052,0.0006835838
13,0.1050803,-0.1146685,0.04366079,-0.08438747,-0.05133102,-0.05133102,0.0006905828
14,0.111015,-0.1145974,0.04337423,-0.08435071,-0.05050981,-0.05050981,0.002743965
15,0.1158914,-0.114403,0.04322864,-0.0842502,-0.04978894,-0.04978894,0.01342375
16,0.1210856,-0.1143604,0.0430136,-0.08417714,-0.04389546,-0.04389546,0.01227511
17,0.1274586,-0.1141656,0.04286849,-0.0840765,-0.03804326,-0.03804326,0.01275858
18,0.1328558,-0.1140364,0.04279572,-0.08400978,-0.03294057,-0.03294057,0.01278443
19,0.1378335,-0.1139095,0.0427945,-0.08394422,-0.0002211284,-0.0002211284,0.01225285
20,0.1425932,-0.1137849,0.0427939,-0.08399429,-0.0002161034,-0.0002161034,0.01181169
21,0.1478623,-0.1136537,0.04279336,-0.08405327,-0.0001852338,-0.0001852338,0.006194064
22,0.1529825,-0.1134884,0.04279284,-0.08415803,-0.000159165,-0.000159165,-0.009916234
23,0.1612945,-0.1129287,0.04279111,-0.0844375,-0.0001192782,-0.0001192782,-0.03227422
24,0.1669171,-0.1123097,0.04291652,-0.08468283,0.001788239,0.001788239,-0.03832707
25,0.1723171,-0.1116931,0.04312935,-0.08492635,0.02822975,0.02822975,-0.04261392
26,0.1772712,-0.1111108,0.04334295,-0.08512161,0.03328806,0.03328806,-0.04033812
27,0.1820534,-0.1104032,0.04355745,-0.08524612,0.03512911,0.03512911,-0.03433063
28,0.1878607,-0.1095607,0.04363143,-0.08541922,0.03423973,0.03423973,-0.02742485
29,0.1928478,-0.1087603,0.04370804,-0.08542098,0.02771227,0.02771227,-0.0212918
30,0.1983282,-0.1080212,0.04371502,-0.08545241,0.001471427,0.001471427,-0.01292329
31,0.2035591,-0.1070628,0.04372776,-0.08542002,0.00216101,0.00216101,-0.004854006
32,0.2098693,-0.1060448,0.04374586,-0.08534788,0.002845061,0.002845061,-0.0005199862
33,0.2156124,-0.1052483,0.04376231,-0.08533292,0.003431461,0.003431461,0.003078846
34,0.2275268,-0.1031223,0.04388876,-0.08529098,0.006749046,0.006749046,0.006137777
35,0.2459722,-0.1004487,0.04440524,-0.08526061,0.03051959,0.03051959,0.003316039
36,0.2528073,-0.09954089,0.04465315,-0.08526953,0.03223769,0.03223769,0.003761539
37,0.2585935,-0.09872972,0.04489951,-0.08526972,0.03328855,0.03328855,0.003006869
38,0.2640036,-0.09797791,0.04507335,-0.08530081,0.03556079,0.03556079,0.002781114
39,0.2700556,-0.09707563,0.04532804,-0.08529601,0.03824572,0.03824572,0.001744011
40,0.2755743,-0.09617776,0.04565522,-0.08528765,0.04081319,0.04081319,-9.135002E-05
41,0.2813558,-0.09527232,0.04597966,-0.08538813,0.04532107,0.04532107,-0.0008132927
42,0.2867501,-0.09449446,0.0462307,-0.08544199,0.05047127,0.05047127,-0.002056146
43,0.3082419,-0.09145205,0.04751581,-0.08576965,0.05720543,0.05720543,-0.01345605
44,0.3143594,-0.09088952,0.04775488,-0.0858791,0.0569873,0.0569873,-0.01738593
45,0.3197841,-0.09032733,0.04799439,-0.08598594,0.05383508,0.05383508,-0.02074794
46,0.3250573,-0.08991405,0.04815221,-0.08612894,0.04688036,0.04688036,-0.01923401
47,0.3304868,-0.08962799,0.04830377,-0.0862362,0.03577818,0.03577818,-0.02440341
48,0.3363394,-0.08939774,0.04837957,-0.08637985,0.02437059,0.02437059,-0.02419169
49,0.341501,-0.08929295,0.04837957,-0.08648817,0.02437059,0.02437059,-0.0194348
50,0.3467875,-0.08915305,0.04837957,-0.08663237,0,0,-0.02802303
51,0.3516676,-0.089083,0.04837957,-0.08670441,0,0,-0.02637805
52,0.3564806,-0.08897784,0.04837957,-0.08681232,0,0,-0.02513505
53,0.361567,-0.0889184,0.04837444,-0.08695104,0.0002122587,0.0002122587,-0.02262731
54,0.3668444,-0.08892616,0.04836188,-0.08713547,-0.0002267023,-0.0002267023,-0.02312767
55,0.3718228,-0.08891293,0.04835556,-0.08724609,-0.001759688,-0.001759688,-0.03141284
56,0.3768039,-0.08893491,0.04834929,-0.08732088,-0.001838311,-0.001838311,-0.0310909
57,0.3818282,-0.08900057,0.04833061,-0.08754538,-0.001787063,-0.001787063,-0.02878811
58,0.3871672,-0.08905777,0.04832444,-0.08758432,-0.0018651,-0.0018651,-0.02755102
59,0.3927907,-0.08913681,0.04831217,-0.08769824,-0.001896663,-0.001896663,-0.02300729
60,0.3978215,-0.08927297,0.04829401,-0.08785125,-0.002038957,-0.002038957,-0.02143513
61,0.4027611,-0.08944467,0.0482761,-0.0879683,-0.002249408,-0.002249408,-0.02302475
62,0.4083869,-0.08961644,0.04825845,-0.08808541,-0.002888243,-0.002888243,-0.01920675
63,0.4135997,-0.08984557,0.04823531,-0.08824162,-0.003080026,-0.003080026,-0.02090115
64,0.4185072,-0.0900175,0.04821827,-0.08835883,-0.003610659,-0.003610659,-0.02488389
65,0.4242887,-0.0903042,0.04819041,-0.08855429,-0.003715576,-0.003715576,-0.02628993
66,0.4296941,-0.09053369,0.04816866,-0.08871075,-0.003842263,-0.003842263,-0.02777905
67,0.434746,-0.09070589,0.04815266,-0.08882815,-0.003854655,-0.003854655,-0.02848994
68,0.4404886,-0.09093559,0.04813169,-0.08898474,-0.003749891,-0.003749891,-0.028187
69,0.4467542,-0.09105325,0.04826078,-0.08906496,-0.002081042,-0.002081042,-0.02559075
70,0.451855,-0.0911708,0.04839002,-0.0891451,-0.0008512507,-0.0008512507,-0.02079969
71,0.4574629,-0.09118042,0.04894739,-0.08915166,0.04282911,0.04282911,-0.01683474
72,0.4626201,-0.09120296,0.05110328,-0.08916703,0.2485741,0.2485741,-0.001209849
73,0.4684809,-0.09120418,0.05283722,-0.08916786,0.3380354,0.3380354,0.0005169023
74,0.47416,-0.09108004,0.05387902,-0.08920596,0.2131042,0.2131042,-0.001370396
75,0.4793308,-0.09090032,0.05519587,-0.08926737,0.2156858,0.2156858,-0.0001470153
76,0.4846421,-0.09062634,0.05706023,-0.08938657,0.2822042,0.2822042,-0.01361432
77,0.4903635,-0.09034883,0.05850682,-0.08950264,0.2910748,0.2910748,-0.01613318
78,0.4969286,-0.08983784,0.06097434,-0.08976346,0.3288286,0.3288286,-0.02421293
79,0.5021903,-0.08939067,0.06268553,-0.08988198,0.3356183,0.3356183,-0.02791099
80,0.5082985,-0.08883879,0.06499602,-0.09010957,0.3559163,0.3559163,-0.03133367
81,0.5151931,-0.08812648,0.06763074,-0.09040503,0.3739834,0.3739834,-0.03252002
82,0.5204834,-0.08748883,0.06964973,-0.09056456,0.3876282,0.3876282,-0.0317084
83,0.5265376,-0.08662407,0.07212629,-0.09074017,0.3956735,0.3956735,-0.0279616
84,0.531823,-0.08584198,0.07425509,-0.0908462,0.4083648,0.4083648,-0.02539852
85,0.5370192,-0.08489282,0.07682675,-0.091069,0.4164938,0.4164938,-0.02722054
86,0.543228,-0.08395028,0.07950547,-0.09128831,0.4286211,0.4286211,-0.02313206
87,0.5491794,-0.08297618,0.08216099,-0.09147502,0.4373313,0.4373313,-0.02050893
88,0.553994,-0.08214744,0.08447124,-0.09164152,0.4444658,0.4444658,-0.02939652
89,0.5599881,-0.08118378,0.08720593,-0.09175774,0.4460808,0.4460808,-0.02304054
90,0.5649958,-0.08034226,0.08947398,-0.09183793,0.4496911,0.4496911,-0.01720455
91,0.5709991,-0.0794105,0.09215549,-0.09196274,0.4434288,0.4434288,-0.01111891
92,0.5762105,-0.07868358,0.09425543,-0.09205899,0.4386225,0.4386225,-0.007822535
93,0.5814017,-0.07795064,0.09627648,-0.09214501,0.4211815,0.4211815,-0.01430295
94,0.5868143,-0.07728605,0.09828074,-0.09222013,0.400488,0.400488,-0.01167461
95,0.5923148,-0.07655847,0.1005082,-0.09230044,0.3783669,0.3783669,-0.01099411
96,0.5975404,-0.07603734,0.10224,-0.09236223,0.365667,0.365667,-0.006513433
97,0.6029714,-0.07533806,0.1043118,-0.09239535,0.3441677,0.3441677,-0.003889953
98,0.6097937,-0.07484101,0.1061329,-0.0924092,0.3206839,0.3206839,-0.0009984218
99,0.6154482,-0.07433525,0.1078793,-0.09235144,0.3076676,0.3076676,0.004538451
100,0.6210869,-0.07395346,0.1095564,-0.09227348,0.2901423,0.2901423,0.008160706
101,0.6266671,-0.07361983,0.1108176,-0.09217381,0.2683675,0.2683675,0.0140605
102,0.63194,-0.07330316,0.1122395,-0.09196474,0.251972,0.251972,0.01800208
103,0.6371437,-0.07303479,0.1133119,-0.09179668,0.2295521,0.2295521,0.0233814
104,0.64261,-0.07282822,0.114378,-0.09157118,0.2012708,0.2012708,0.0306313
105,0.6479923,-0.0727762,0.1151575,-0.09128442,0.1774027,0.1774027,0.03562491
106,0.6532065,-0.07276633,0.1157643,-0.09097248,0.1478115,0.1478115,0.06398282
107,0.6582481,-0.07280855,0.116314,-0.09064545,0.1219028,0.1219028,0.06285107
108,0.6694137,-0.07329514,0.116909,-0.08979215,0.06878088,0.06878088,0.06965222
109,0.6793591,-0.07384009,0.1169909,-0.08875589,0.02542133,0.02542133,0.09833866
110,0.6884173,-0.07460331,0.1165952,-0.08778558,-0.02226692,-0.02226692,0.1026229
111,0.6999918,-0.07573752,0.1155174,-0.08652955,-0.09811161,-0.09811161,0.1066487
112,0.7051504,-0.0763633,0.1147869,-0.08597525,-0.1207364,-0.1207364,0.110348
113,0.7101273,-0.07700425,0.1139413,-0.0853739,-0.1461567,-0.1461567,0.1073672
114,0.7145284,-0.07759412,0.1132096,-0.08490341,-0.1624752,-0.1624752,0.1120174
115,0.7191304,-0.0783848,0.1122524,-0.08435121,-0.179565,-0.179565,0.1145661
116,0.7241235,-0.07918631,0.1111766,-0.0837461,-0.1995417,-0.1995417,0.1161262
117,0.7289383,-0.08009271,0.1100429,-0.08321006,-0.2168581,-0.2168581,0.1205079
118,0.7334877,-0.08083785,0.1090733,-0.08272316,-0.2247024,-0.2247024,0.1188972
119,0.738224,-0.08187561,0.1078145,-0.0821522,-0.2393553,-0.2393553,0.1209471
120,0.7430292,-0.08305331,0.1064917,-0.0816087,-0.2485751,-0.2485751,0.124523
121,0.7477235,-0.08418523,0.1050999,-0.08102229,-0.2662512,-0.2662512,0.122395
122,0.7524042,-0.08512954,0.1039328,-0.08058017,-0.2751611,-0.2751611,0.1262394
123,0.7568831,-0.08638711,0.1024046,-0.07993977,-0.2926928,-0.2926928,0.1204208
124,0.7612507,-0.0874334,0.1010427,-0.07948507,-0.3160852,-0.3160852,0.1206508
125,0.7660001,-0.0887683,0.09937167,-0.07891782,-0.3355907,-0.3355907,0.1267533
126,0.7707744,-0.09018037,0.09744412,-0.07832327,-0.3604379,-0.3604379,0.1250184
127,0.7753767,-0.09139938,0.0958029,-0.07787371,-0.3844722,-0.3844722,0.1201196
128,0.7798949,-0.09294611,0.09371698,-0.0772631,-0.4079166,-0.4079166,0.1243964
129,0.7844722,-0.09448054,0.09142349,-0.07667762,-0.4323334,-0.4323334,0.127504
130,0.78943,-0.09574659,0.08954571,-0.07620239,-0.4567541,-0.4567541,0.1263724
131,0.7939688,-0.09735522,0.08701707,-0.07566938,-0.4821222,-0.4821222,0.1262903
132,0.7984765,-0.09866317,0.08497444,-0.07518093,-0.4984309,-0.4984309,0.1291519
133,0.8028518,-0.1002249,0.08252558,-0.07463618,-0.5053622,-0.5053622,0.1278113
134,0.807673,-0.1018983,0.07992058,-0.07412289,-0.510927,-0.510927,0.124059
135,0.8123487,-0.1031681,0.07781877,-0.0737284,-0.5136176,-0.5136176,0.119539
136,0.816964,-0.1048231,0.07536528,-0.07327457,-0.5182397,-0.5182397,0.1123153
137,0.8215198,-0.1064535,0.07289187,-0.07278594,-0.5068438,-0.5068438,0.1055887
138,0.8263349,-0.1077546,0.0710053,-0.07246756,-0.5009791,-0.5009791,0.1033571
139,0.830828,-0.1095239,0.0685623,-0.07211235,-0.4906959,-0.4906959,0.09643194
140,0.8353732,-0.1108441,0.06678804,-0.0717698,-0.4802569,-0.4802569,0.09098332
141,0.8398485,-0.1125648,0.06452356,-0.07146641,-0.4660012,-0.4660012,0.08570969
142,0.8445736,-0.1143223,0.0623856,-0.07115638,-0.4475859,-0.4475859,0.07913192
143,0.8493776,-0.1157572,0.06072484,-0.07086891,-0.4335206,-0.4335206,0.07491926
144,0.8549869,-0.1178794,0.05836596,-0.07054476,-0.4091609,-0.4091609,0.07043
145,0.8595303,-0.1191988,0.0569066,-0.07035351,-0.3981944,-0.3981944,0.06889635
146,0.8638878,-0.1209676,0.05502914,-0.07008439,-0.3795399,-0.3795399,0.06158936
147,0.8677727,-0.1223082,0.05363886,-0.06993434,-0.3701824,-0.3701824,0.05998964
148,0.8720654,-0.1236433,0.05224885,-0.06977135,-0.3599021,-0.3599021,0.05856834
149,0.876025,-0.1249062,0.05085748,-0.06957106,-0.356506,-0.356506,0.05301866
150,0.8798079,-0.1262012,0.04946846,-0.0694335,-0.3531407,-0.3531407,0.05357141
151,0.8836698,-0.1274231,0.04814915,-0.06926004,-0.3472019,-0.3472019,0.05073384
152,0.887559,-0.1286384,0.0467594,-0.0690753,-0.3459601,-0.3459601,0.04927998
153,0.8917242,-0.1297521,0.04543889,-0.06890841,-0.3419608,-0.3419608,0.04717289
154,0.8956982,-0.1308589,0.04411919,-0.06873177,-0.3391818,-0.3391818,0.04566035
155,0.8994477,-0.1316811,0.04314891,-0.06863879,-0.3384044,-0.3384044,0.04698516
156,0.9032879,-0.1328594,0.04147464,-0.06841081,-0.3326413,-0.3326413,0.04774353
157,0.9075758,-0.1337827,0.0402213,-0.06821585,-0.3314967,-0.3314967,0.04753433
158,0.9115306,-0.1344273,0.03931676,-0.06811372,-0.3233976,-0.3233976,0.049937
159,0.9154251,-0.1352418,0.03805989,-0.06793786,-0.3200518,-0.3200518,0.04858454
160,0.9195786,-0.1362279,0.03659566,-0.06768589,-0.3107609,-0.3107609,0.05121192
161,0.9233953,-0.136966,0.0354799,-0.06747631,-0.2936177,-0.2936177,0.05258334
162,0.9274363,-0.1374567,0.03463945,-0.06731274,-0.2932649,-0.2932649,0.0562458
163,0.9313364,-0.1380926,0.03359187,-0.0671291,-0.2812456,-0.2812456,0.0573889
164,0.9353441,-0.1387286,0.03261757,-0.06694291,-0.2666176,-0.2666176,0.05425102
165,0.9393436,-0.1393597,0.0316439,-0.06675248,-0.2503922,-0.2503922,0.05380989
166,0.9432121,-0.1398959,0.03073789,-0.06659496,-0.2398119,-0.2398119,0.04929904
167,0.947121,-0.1404616,0.02990538,-0.06637967,-0.2313062,-0.2313062,0.04812331
168,0.9509468,-0.1409075,0.02914014,-0.06625579,-0.2192489,-0.2192489,0.04837753
169,0.9548219,-0.1413768,0.02837542,-0.06607256,-0.2085395,-0.2085395,0.04512601
170,0.9587576,-0.1418162,0.02761123,-0.06594406,-0.1958338,-0.1958338,0.04388807
171,0.9627556,-0.1422607,0.02692063,-0.06581589,-0.1789545,-0.1789545,0.04035088
172,0.9667155,-0.1427113,0.0263038,-0.06568826,-0.1745118,-0.1745118,0.03682239
173,0.9706126,-0.1429926,0.02567351,-0.0655749,-0.1659291,-0.1659291,0.03626641
174,0.9746365,-0.1433604,0.02519692,-0.06548654,-0.1576454,-0.1576454,0.0344965
175,0.9784991,-0.14363,0.02471359,-0.06543432,-0.1457895,-0.1457895,0.03070769
176,0.9823756,-0.1439152,0.02415735,-0.06532037,-0.1416302,-0.1416302,0.02829626
177,0.9865107,-0.1441014,0.02359393,-0.06524299,-0.1418462,-0.1418462,0.02811883
178,0.9906132,-0.1444434,0.02297249,-0.06514457,-0.1363461,-0.1363461,0.02489587
179,0.9944455,-0.1445861,0.02262151,-0.06505392,-0.1344714,-0.1344714,0.02561911
180,0.9983785,-0.1448486,0.02213955,-0.06499762,-0.1322099,-0.1322099,0.0252079
181,1.002319,-0.145039,0.02165011,-0.06492021,-0.1321455,-0.1321455,0.02403387
182,1.00628,-0.145157,0.02115297,-0.06482179,-0.1282663,-0.1282663,0.02419592
183,1.010174,-0.1453071,0.0205906,-0.06479862,-0.1280386,-0.1280386,0.02265122
184,1.014133,-0.1453958,0.02009368,-0.06475776,-0.1273113,-0.1273113,0.02024747
185,1.01806,-0.1454568,0.01959687,-0.06477522,-0.1252199,-0.1252199,0.01986739
186,1.022027,-0.1455307,0.01902694,-0.06473009,-0.1261573,-0.1261573,0.005956853
187,1.026109,-0.1456008,0.01860359,-0.06475009,-0.1262388,-0.1262388,0.006929699
188,1.030115,-0.1455617,0.01795259,-0.06473893,-0.1290425,-0.1290425,-0.00383027
189,1.033949,-0.1456164,0.0174562,-0.06475455,-0.1297717,-0.1297717,-0.002832427
190,1.037982,-0.1455985,0.01695189,-0.06474944,-0.1315591,-0.1315591,-0.001979207
191,1.041846,-0.1455529,0.01630127,-0.06473643,-0.1335113,-0.1335113,-0.001292347
192,1.045666,-0.1455316,0.01579717,-0.06473033,-0.1357671,-0.1357671,-5.015591E-05
193,1.049615,-0.1454815,0.01514688,-0.06471604,-0.1394006,-0.1394006,0.0009044947
194,1.053489,-0.1453992,0.0147081,-0.06469255,-0.1430237,-0.1430237,0.001305329
195,1.057436,-0.1453589,0.01413128,-0.06468105,-0.1431649,-0.1431649,0.002252769
196,1.061407,-0.1451412,0.0132543,-0.06473658,-0.1487341,-0.1487341,0.002864405
197,1.065318,-0.1451252,0.012824,-0.064732,-0.1528254,-0.1528254,0.002926328
198,1.069278,-0.144951,0.01209372,-0.06474809,-0.154938,-0.154938,0.002656349
199,1.073532,-0.144834,0.01144475,-0.06484661,-0.1626063,-0.1626063,-0.01301953
200,1.077343,-0.1446537,0.01071522,-0.06486072,-0.1639592,-0.1639592,-0.01333558
201,1.081335,-0.1444439,0.009986043,-0.06493214,-0.1699202,-0.1699202,-0.009150431
202,1.085264,-0.1442571,0.009257317,-0.06494408,-0.1760432,-0.1760432,-0.007888609
203,1.089416,-0.1440505,0.00845623,-0.06495009,-0.1770441,-0.1770441,-0.007849725
204,1.093318,-0.1438137,0.007655695,-0.06501292,-0.1851316,-0.1851316,-0.0079461
205,1.097269,-0.143573,0.006855741,-0.06507435,-0.1915025,-0.1915025,-0.007234024
206,1.101286,-0.1433284,0.006056428,-0.06513421,-0.1931312,-0.1931312,-0.009014067
207,1.105229,-0.1430798,0.005257741,-0.06519261,-0.1967272,-0.1967272,-0.00930322
208,1.10918,-0.1427827,0.0043872,-0.06530172,-0.1992327,-0.1992327,-0.01229193
209,1.112916,-0.1424807,0.003517449,-0.06540891,-0.2024818,-0.2024818,-0.01377816
210,1.11694,-0.1422005,0.002648562,-0.06545661,-0.2116852,-0.2116852,-0.013726
211,1.120778,-0.1419158,0.001780555,-0.06550248,-0.2124949,-0.2124949,-0.01510634
212,1.124946,-0.1415799,0.0008412451,-0.06559785,-0.2153715,-0.2153715,-0.01521071
213,1.128785,-0.1412854,-2.485514E-05,-0.06563985,-0.2169251,-0.2169251,-0.01623869
214,1.132964,-0.1409125,-0.0009620041,-0.06578767,-0.219461,-0.219461,-0.01617291
215,1.136854,-0.1405607,-0.001897976,-0.06587607,-0.2221821,-0.2221821,-0.01844594
216,1.140628,-0.1402034,-0.002832711,-0.06596205,-0.2223612,-0.2223612,-0.01874667
217,1.144608,-0.1398139,-0.003766209,-0.06610205,-0.2259182,-0.2259182,-0.02116057
218,1.148707,-0.1394907,-0.004691362,-0.0662614,-0.2269255,-0.2269255,-0.02643175
219,1.152477,-0.139113,-0.005550683,-0.06640305,-0.2275583,-0.2275583,-0.0284074
220,1.156366,-0.1388753,-0.006258935,-0.06652282,-0.2279005,-0.2279005,-0.03107916
221,1.160313,-0.1384364,-0.007323295,-0.06677238,-0.227056,-0.227056,-0.03394155
222,1.164224,-0.1381426,-0.007965177,-0.06687316,-0.2256938,-0.2256938,-0.03653491
223,1.168191,-0.1377915,-0.008813053,-0.06708372,-0.2203663,-0.2203663,-0.0393533
224,1.172098,-0.1375318,-0.009581655,-0.0673224,-0.2126875,-0.2126875,-0.04090626
225,1.176025,-0.1371962,-0.01035617,-0.06753606,-0.208693,-0.208693,-0.04267229
226,1.180023,-0.1368566,-0.01112959,-0.06774737,-0.1979569,-0.1979569,-0.04679288
227,1.184001,-0.1366099,-0.01182416,-0.06798804,-0.1936525,-0.1936525,-0.0484435
228,1.187826,-0.1363139,-0.01245403,-0.06821192,-0.1810845,-0.1810845,-0.05107232
229,1.19197,-0.135989,-0.01315376,-0.06842542,-0.1760502,-0.1760502,-0.0522607
230,1.195804,-0.1356855,-0.01371148,-0.06870927,-0.1672441,-0.1672441,-0.05515039
231,1.199603,-0.1353808,-0.014339,-0.0689277,-0.1631495,-0.1631495,-0.05671614
232,1.203588,-0.1350721,-0.01489538,-0.06920794,-0.1571064,-0.1571064,-0.05804582
233,1.207645,-0.1347339,-0.01552138,-0.0694773,-0.1534162,-0.1534162,-0.05970166
234,1.211673,-0.134448,-0.01607633,-0.06969953,-0.1500596,-0.1500596,-0.06099157
235,1.215666,-0.1341033,-0.01663065,-0.07002861,-0.1480622,-0.1480622,-0.06247989
236,1.21949,-0.1338127,-0.01718426,-0.07024752,-0.1464199,-0.1464199,-0.06368568
237,1.223562,-0.1334634,-0.01780716,-0.070509,-0.145091,-0.145091,-0.06338833
238,1.227493,-0.1332106,-0.01835231,-0.0708035,-0.1442969,-0.1442969,-0.06369332
239,1.231356,-0.1329693,-0.01876423,-0.0710376,-0.1425925,-0.1425925,-0.06574353
240,1.235131,-0.1326407,-0.01931514,-0.07130378,-0.1415571,-0.1415571,-0.06618018
241,1.239078,-0.1323944,-0.01992083,-0.07166268,-0.1415709,-0.1415709,-0.06787769
242,1.243018,-0.1321316,-0.02046311,-0.07195111,-0.1414726,-0.1414726,-0.07060868
243,1.246996,-0.1318371,-0.02107398,-0.07222722,-0.1408035,-0.1408035,-0.07174425
244,1.251135,-0.1316108,-0.02160737,-0.07259189,-0.1408189,-0.1408189,-0.07392008
245,1.255044,-0.1314525,-0.02220175,-0.07291748,-0.1411915,-0.1411915,-0.07798323
246,1.258901,-0.131291,-0.02279483,-0.07324187,-0.1389008,-0.1389008,-0.08099918
