Frame,Time,Cursor Position X,Cursor Position Y,Cursor Position Z,Cursor Velocity X,Cursor Velocity Y,Cursor Velocity Z
1348,2.15558,0,0,0,0,0,0
1349,2.15558,0,0,0,0,0,0
1350,2.17558,0,0,0,0,0,0
1351,2.180864,0,0,0,0,0,0
1352,2.185957,0,0,0,0,0,0
1353,2.190686,0,0,0,0,0,0
1354,2.197284,0,0,0,0,0,0
1355,2.202073,0,0,0,0,0,0
1356,2.206896,0,0,0,0,0,0
1357,2.211044,0,0,0,0,0,0
1358,2.215264,0,0,0,0,0,0
1359,2.219557,0,0,0,0,0,0
1360,2.224092,0,0,0,0,0,0
1361,2.228915,0,0,0,0,0,0
1362,2.233398,0,0,0,0,0,0
1363,2.238165,0,0,0,0,0,0
1364,2.24254,0,0,0,0,0,0
1365,2.246948,0,0,0,0,0,0
1366,2.251215,0,0,0,0,0,0
1367,2.255549,0,0,0,0,0,0
1368,2.25985,0,0,0,0,0,0
1369,2.263983,0,0,0,0,0,0
1370,2.268655,0,0,0,0,0,0
1371,2.272603,0,0,0,0,0,0
1372,2.276658,0,0,0,0,0,0
1373,2.28091,0,0,0,0,0,0
1374,2.285342,0,0,0,0,0,0
1375,2.289658,0,0,0,0,0,0
1376,2.293771,0,0,0,0,0,0
1377,2.298082,0,0,0,0,0,0
1378,2.302268,0,0,0,0,0,0
1379,2.306984,0,0,0,0,0,0
1380,2.311127,0,0,0,0,0,0
1381,2.315401,0,0,0,0,0,0
1382,2.319963,0,0,0,0,0,0
1383,2.324338,0,0,0,0,0,0
1384,2.329259,0,0,0,0,0,0
1385,2.333861,0,0,0,0,0,0
1386,2.338158,0,0,0,0,0,0
1387,2.342576,0,0,0,0,0,0
1388,2.347348,0,0,0,0,0,0
1389,2.351747,0,0,0,0,0,0
1390,2.356439,-0.1016981,-0.07257184,-0.09824593,0,0,0
1391,2.361124,-0.1016981,-0.07257184,-0.09824593,0,0,0
1392,2.366293,-0.1016981,-0.07257184,-0.09824593,0,0,0
1393,2.377269,-0.1016981,-0.07257184,-0.09824593,0,0,0
1394,2.382046,-0.1016981,-0.07257184,-0.09824593,0,0,0
1395,2.386903,-0.1016981,-0.07257184,-0.09824593,0,0,0
1396,2.391239,-0.1016981,-0.07257184,-0.09824593,0,0,0
1397,2.395541,-0.1016981,-0.07257184,-0.09824593,0,0,0
1398,2.400049,-0.1016981,-0.07257184,-0.09824593,0,0,0
1399,2.405134,-0.1016981,-0.07257184,-0.09824593,0,0,0
1400,2.409333,-0.1016981,-0.07257184,-0.09824593,0,0,0
1401,2.41349,-0.1016981,-0.07257184,-0.09824593,0,0,0
1402,2.417904,-0.1016981,-0.07257184,-0.09824593,0,0,0
1403,2.422201,-0.1016981,-0.07257184,-0.09824593,0,0,0
1404,2.426566,-0.1016981,-0.07257184,-0.09824593,0,0,0
1405,2.430443,-0.1016981,-0.07257184,-0.09824593,0,0,0
1406,2.434494,-0.1016981,-0.07257184,-0.09824593,0,0,0
1407,2.438603,-0.1016981,-0.07257184,-0.09824593,0,0,0
1408,2.442612,-0.1016981,-0.07257184,-0.09824593,0,0,0
1409,2.446751,-0.1016981,-0.07257184,-0.09824593,0,0,0
1410,2.450822,-0.1016981,-0.07257184,-0.09824593,0,0,0
1411,2.455234,-0.1016981,-0.07257184,-0.09824593,0,0,0
1412,2.459405,-0.1016981,-0.07257184,-0.09824593,0,0,0
1413,2.463552,-0.1016981,-0.07257184,-0.09824593,0,0,0
1414,2.468282,-0.1016981,-0.07257184,-0.09824593,0,0,0
1415,2.472659,-0.1016981,-0.07257184,-0.09824593,0,0,0
1416,2.47694,-0.1016981,-0.07257184,-0.09824593,0,0,0
1417,2.481079,-0.1016981,-0.07257184,-0.09824593,0,0,0
1418,2.485496,-0.1016981,-0.07257184,-0.09824593,0,0,0
1419,2.489376,-0.1016981,-0.07257184,-0.09824593,0,0,0
1420,2.493285,-0.1016981,-0.07257184,-0.09824593,0,0,0
1421,2.497236,-0.1016981,-0.07257184,-0.09824593,0,0,0
1422,2.501206,-0.1016981,-0.07257184,-0.09824593,0,0,0
1423,2.505461,-0.1016981,-0.07257184,-0.09824593,0,0,0
1424,2.509272,-0.1016981,-0.07257184,-0.09824593,0,0,0
1425,2.513318,-0.1016981,-0.07257184,-0.09824593,0,0,0
1426,2.517254,-0.1016981,-0.07257184,-0.09824593,0,0,0
1427,2.521355,-0.1016981,-0.07257184,-0.09824593,0,0,0
1428,2.525457,-0.1016981,-0.07257184,-0.09824593,0,0,0
1429,2.529211,-0.1016981,-0.07257184,-0.09824593,0,0,0
1430,2.533191,-0.1016981,-0.07257184,-0.09824593,0,0,0
1431,2.537209,-0.1016981,-0.07257184,-0.09824593,0,0,0
1432,2.541093,-0.1016981,-0.07257184,-0.09824593,0,0,0
1433,2.545321,-0.1016981,-0.07257184,-0.09824593,0,0,0
1434,2.549045,-0.1016981,-0.07257184,-0.09824593,0,0,0
1435,2.553329,-0.1016981,-0.07257184,-0.09824593,0,0,0
1436,2.557652,-0.1016981,-0.07257184,-0.09824593,0,0,0
1437,2.562177,-0.1016981,-0.07257184,-0.09824593,0,0,0
1438,2.566787,-0.1016981,-0.07257184,-0.09824593,0,0,0
1439,2.571616,-0.1016981,-0.07257184,-0.09824593,0,0,0
1440,2.57639,-0.1016981,-0.07257184,-0.09824593,0,0,0
1441,2.58072,-0.1016981,-0.07257184,-0.09824593,0,0,0
1442,2.585358,-0.1016981,-0.07257184,-0.09824593,0,0,0
1443,2.590645,-0.1016981,-0.07257184,-0.09824593,0,0,0
1444,2.595083,-0.1016981,-0.07257184,-0.09824593,0,0,0
1445,2.599502,-0.1016981,-0.07257184,-0.09824593,0,0,0
1446,2.604124,-0.1016981,-0.07257184,-0.09824593,0,0,0
1447,2.608964,-0.1016981,-0.07257184,-0.09824593,0,0,0
1448,2.613231,-0.1016981,-0.07257184,-0.09824593,0,0,0
1449,2.617628,-0.1016981,-0.07257184,-0.09824593,0,0,0
1450,2.622743,-0.1016981,-0.07257184,-0.09824593,0,0,0
1451,2.627381,-0.1016981,-0.07257184,-0.09824593,0,0,0
1452,2.631533,-0.1016981,-0.07257184,-0.09824593,0,0,0
1453,2.63599,-0.1016981,-0.07257184,-0.09824593,0,0,0
1454,2.640984,-0.1016981,-0.07257184,-0.09824593,0,0,0
1455,2.645594,-0.1016981,-0.07257184,-0.09824593,0,0,0
1456,2.649914,-0.1016981,-0.07257184,-0.09824593,0,0,0
1457,2.654861,-0.1016981,-0.07257184,-0.09824593,0,0,0
1458,2.659369,-0.1016981,-0.07257184,-0.09824593,0,0,0
1459,2.663719,-0.1016981,-0.07257184,-0.09824593,0,0,0
1460,2.668504,-0.1016981,-0.07257184,-0.09824593,0,0,0
1461,2.67353,-0.1016981,-0.07257184,-0.09824593,0,0,0
1462,2.677975,-0.1016981,-0.07257184,-0.09824593,0,0,0
1463,2.684841,-0.1016981,-0.07257184,-0.09824593,0,0,0
