Frame,Time,Cursor Position X,Cursor Position Y,Cursor Position Z,Cursor Velocity X,Cursor Velocity Y,Cursor Velocity Z
2656,3.803673,0,0,0,0,0,0
2657,3.803673,-0.142413,-0.02635512,-0.1073985,0,0,0
2658,3.823673,-0.142413,-0.02635512,-0.1073985,0,0,0
2659,3.82938,-0.142413,-0.02635512,-0.1073985,0,0,0
2660,3.834088,-0.142413,-0.02635512,-0.1073985,0,0,0
2661,3.842384,-0.142413,-0.02635512,-0.1073985,0,0,0
2662,3.850471,-0.142413,-0.02635512,-0.1073985,0,0,0
2663,3.854713,-0.142413,-0.02635512,-0.1073985,0,0,0
2664,3.858925,-0.142413,-0.02635512,-0.1073985,0,0,0
2665,3.863084,-0.142413,-0.02635512,-0.1073985,0,0,0
2666,3.869376,-0.142413,-0.02635512,-0.1073985,0,0,0
2667,3.87361,-0.142413,-0.02635512,-0.1073985,0,0,0
2668,3.877801,-0.142413,-0.02635512,-0.1073985,0,0,0
2669,3.882252,-0.142413,-0.02635512,-0.1073985,0,0,0
2670,3.887072,-0.142413,-0.02635512,-0.1073985,0,0,0
2671,3.891559,-0.142413,-0.02635512,-0.1073985,0,0,0
2672,3.896027,-0.142413,-0.02635512,-0.1073985,0,0,0
2673,3.900347,-0.142413,-0.02635512,-0.1073985,0,0,0
2674,3.90519,-0.142413,-0.02635512,-0.1073985,0,0,0
2675,3.909359,-0.142413,-0.02635512,-0.1073985,0,0,0
2676,3.913497,-0.142413,-0.02635512,-0.1073985,0,0,0
2677,3.917661,-0.142413,-0.02635512,-0.1073985,0,0,0
2678,3.921821,-0.142413,-0.02635512,-0.1073985,0,0,0
2679,3.926462,-0.142413,-0.02635512,-0.1073985,0,0,0
2680,3.93065,-0.142413,-0.02635512,-0.1073985,0,0,0
2681,3.934789,-0.142413,-0.02635512,-0.1073985,0,0,0
2682,3.93896,-0.142413,-0.02635512,-0.1073985,0,0,0
2683,3.942985,-0.142413,-0.02635512,-0.1073985,0,0,0
2684,3.947558,-0.142413,-0.02635512,-0.1073985,0,0,0
2685,3.951654,-0.142413,-0.02635512,-0.1073985,0,0,0
2686,3.955851,-0.142413,-0.02635512,-0.1073985,0,0,0
2687,3.960089,-0.142413,-0.02635512,-0.1073985,0,0,0
2688,3.965297,-0.142413,-0.02635512,-0.1073985,0,0,0
2689,3.969615,-0.142413,-0.02635512,-0.1073985,0,0,0
2690,3.973723,-0.142413,-0.02635512,-0.1073985,0,0,0
2691,3.977973,-0.142413,-0.02635512,-0.1073985,0,0,0
2692,3.982284,-0.142413,-0.02635512,-0.1073985,0,0,0
2693,3.987042,-0.142413,-0.02635512,-0.1073985,0,0,0
2694,3.991327,-0.142413,-0.02635512,-0.1073985,0,0,0
2695,3.995762,-0.142413,-0.02635512,-0.1073985,0,0,0
2696,3.999902,-0.142413,-0.02635512,-0.1073985,0,0,0
2697,4.003994,-0.142413,-0.02635512,-0.1073985,0,0,0
2698,4.008523,-0.1450529,0.003789708,-0.1074288,0.05385303,0.05385303,0.003984965
2699,4.012689,-0.1448394,0.003401667,-0.1073084,-0.032068,-0.032068,0.01573025
2700,4.023968,-0.1444476,0.002303034,-0.1073175,-0.0842721,-0.0842721,0.01028612
2701,4.029171,-0.1442319,0.001790881,-0.1073611,-0.09342963,-0.09342963,0.0006068422
2702,4.033638,-0.1439961,0.00120604,-0.1073931,-0.1043622,-0.1043622,-0.002356588
2703,4.038106,-0.1437775,0.0006946772,-0.1074343,-0.1166179,-0.1166179,-0.003646075
2704,4.042583,-0.1434805,-0.0001080483,-0.1074308,-0.1341908,-0.1341908,-0.0007995667
2705,4.047116,-0.1432191,-0.0007641315,-0.1074471,-0.1400232,-0.1400232,-0.003804812
2706,4.051403,-0.1429554,-0.001419514,-0.1074616,-0.1554446,-0.1554446,-0.001329989
2707,4.055564,-0.1425857,-0.002292335,-0.1074976,-0.1612571,-0.1612571,-0.0003297104
2708,4.059574,-0.1423368,-0.00287351,-0.1075197,-0.1658523,-0.1658523,-0.001616017
2709,4.06354,-0.1420116,-0.003729418,-0.1075799,-0.1684314,-0.1684314,-0.002769298
2710,4.068184,-0.1417372,-0.004381657,-0.1075865,-0.1686802,-0.1686802,-0.002143934
2711,4.072172,-0.1414799,-0.005015045,-0.1076847,-0.1698079,-0.1698079,-0.004372519
2712,4.076223,-0.1411999,-0.005719617,-0.1077695,-0.1704731,-0.1704731,-0.005865469
2713,4.080395,-0.1408954,-0.006495401,-0.1078394,-0.165998,-0.165998,-0.01271764
2714,4.085089,-0.1406099,-0.007053837,-0.1080021,-0.1633164,-0.1633164,-0.01366411
2715,4.08935,-0.1403439,-0.007683709,-0.1080933,-0.1611149,-0.1611149,-0.01628318
2716,4.093771,-0.1399868,-0.008456573,-0.1082128,-0.1593236,-0.1593236,-0.0185741
2717,4.098461,-0.1397155,-0.009084657,-0.1082999,-0.1563224,-0.1563224,-0.01959757
2718,4.10301,-0.139349,-0.009908497,-0.1084946,-0.152575,-0.152575,-0.02307975
2719,4.107823,-0.1390956,-0.01046309,-0.108591,-0.1505208,-0.1505208,-0.02382219
2720,4.111932,-0.1388366,-0.01106995,-0.108766,-0.1484271,-0.1484271,-0.02541887
2721,4.115963,-0.1385792,-0.01162308,-0.1088592,-0.1465853,-0.1465853,-0.02629924
2722,4.120048,-0.1382917,-0.01229958,-0.1090162,-0.1429432,-0.1429432,-0.02824835
2723,4.124482,-0.1380739,-0.01276127,-0.1092146,-0.1359755,-0.1359755,-0.03057628
2724,4.128452,-0.1378987,-0.01322234,-0.109356,-0.1322257,-0.1322257,-0.03216462
2725,4.132579,-0.1375895,-0.01377267,-0.1094986,-0.1282379,-0.1282379,-0.03441499
2726,4.136673,-0.1373914,-0.01416147,-0.1097082,-0.125068,-0.125068,-0.03599235
2727,4.140472,-0.1371672,-0.01462075,-0.1099015,-0.1188997,-0.1188997,-0.03954573
2728,4.145056,-0.1369664,-0.01500854,-0.110109,-0.1145383,-0.1145383,-0.04184081
2729,4.149089,-0.1367643,-0.01539582,-0.1103155,-0.1081652,-0.1081652,-0.04494793
2730,4.152986,-0.1365862,-0.01571183,-0.1105367,-0.1027553,-0.1027553,-0.04720374
2731,4.156886,-0.1363816,-0.0160982,-0.1107413,-0.09580243,-0.09580243,-0.04991313
2732,4.160763,-0.136182,-0.01634276,-0.1110318,-0.09063666,-0.09063666,-0.05250906
2733,4.165259,-0.1360007,-0.01665765,-0.1112507,-0.08763701,-0.08763701,-0.05486043
2734,4.169314,-0.135736,-0.0169208,-0.1115004,-0.07810709,-0.07810709,-0.05720741
2735,4.173201,-0.1355075,-0.01723501,-0.1117725,-0.07340596,-0.07340596,-0.05829956
2736,4.177423,-0.1353379,-0.01735675,-0.1119985,-0.06868898,-0.06868898,-0.06015641
2737,4.18162,-0.1350881,-0.0176,-0.1123403,-0.05769882,-0.05769882,-0.06319443
2738,4.186269,-0.1348457,-0.01779193,-0.1126033,-0.05051259,-0.05051259,-0.06481641
2739,4.190339,-0.1346286,-0.01791331,-0.1128824,-0.04419862,-0.04419862,-0.06469933
2740,4.194446,-0.1344565,-0.01803467,-0.1131066,-0.0390417,-0.0390417,-0.06564762
2741,4.198532,-0.1341924,-0.01815593,-0.113439,-0.03622484,-0.03622484,-0.06367677
2742,4.202528,-0.1339828,-0.01822628,-0.1136388,-0.02765421,-0.02765421,-0.06603743
2743,4.207187,-0.1338152,-0.01820683,-0.1139499,-0.02608424,-0.02608424,-0.06360544
2744,4.211211,-0.1335588,-0.01827714,-0.114203,-0.01803266,-0.01803266,-0.06637235
2745,4.215292,-0.1333899,-0.01825765,-0.1145135,-0.0192086,-0.0192086,-0.06414795
2746,4.219342,-0.1331582,-0.01825765,-0.1147828,0.003081205,0.003081205,-0.06925733
2747,4.223686,-0.1328796,-0.01825765,-0.1151053,0,0,-0.06390003
2748,4.228477,-0.1326002,-0.01825765,-0.1154271,0,0,-0.06532741
2749,4.232766,-0.1323199,-0.01825765,-0.1157482,0,0,-0.06651472
2750,4.236763,-0.1320858,-0.01825765,-0.1160153,0,0,-0.06685746
2751,4.240769,-0.1318042,-0.01825765,-0.1163352,0,0,-0.06945169
2752,4.24541,-0.1315217,-0.01825765,-0.1166544,0,0,-0.07276396
2753,4.249556,-0.1311439,-0.01825765,-0.1170789,0,0,-0.07314043
2754,4.253563,-0.1308597,-0.01825765,-0.1173965,0,0,-0.07613805
2755,4.25757,-0.1305271,-0.01825765,-0.1177662,0,0,-0.07775096
2756,4.261561,-0.1302412,-0.01825765,-0.1180823,0,0,-0.08027797
2757,4.266776,-0.129811,-0.01825765,-0.1185551,0,0,-0.08299975
2758,4.270993,-0.1294751,-0.01825765,-0.1189218,0,0,-0.08470552
2759,4.277795,-0.128897,-0.01825765,-0.1195482,0,0,-0.08792311
2760,4.28483,-0.1283275,-0.01823813,-0.1202672,0.0002915436,0.0002915436,-0.09177704
2761,4.290356,-0.1278893,-0.01823813,-0.1207331,0,0,-0.09227462
2762,4.29436,-0.1275583,-0.01821861,-0.1211898,0.0004946875,0.0004946875,-0.0946421
2763,4.298212,-0.1271659,-0.01821861,-0.1216015,0.0004955766,0.0004955766,-0.0973727
2764,4.306318,-0.1263376,-0.01819903,-0.1225677,0.00182519,0.00182519,-0.1015111
2765,4.310791,-0.1260401,-0.01819903,-0.1228737,0.00182519,0.00182519,-0.1024462
2766,4.317833,-0.1253022,-0.01817939,-0.1237311,0.001936406,0.001936406,-0.1046627
2767,4.324448,-0.124659,-0.01815975,-0.1244834,0.002118225,0.002118225,-0.1054627
2768,4.328814,-0.1243147,-0.01814005,-0.1249313,0.002348328,0.002348328,-0.1067595
2769,4.333293,-0.1239102,-0.01814005,-0.1253325,0.002348328,0.002348328,-0.1073358
2770,4.337494,-0.1234102,-0.01812032,-0.125928,0.002455131,0.002455131,-0.1069603
2771,4.341852,-0.1230025,-0.01812032,-0.1263263,0.002455131,0.002455131,-0.1069301
2772,4.346353,-0.1225693,-0.01819068,-0.1267038,-0.0005204577,-0.0005204577,-0.1005003
2773,4.351516,-0.1220112,-0.01817092,-0.1273434,0.00209949,0.00209949,-0.1052279
2774,4.356034,-0.121599,-0.01817092,-0.1277371,0,0,-0.100262
2775,4.360774,-0.12103,-0.01817092,-0.1282763,0,0,-0.1006757
2776,4.368161,-0.1202503,-0.01817092,-0.1290075,0,0,-0.1004446
2777,4.372173,-0.1198373,-0.01815113,-0.1294917,0.001133444,0.001133444,-0.1040778
2778,4.376329,-0.1194181,-0.01815113,-0.1298784,0.001133444,0.001133444,-0.1042898
2779,4.380773,-0.1188397,-0.01815113,-0.1304078,0,0,-0.1018903
2780,4.386033,-0.1183682,-0.01813132,-0.1309354,0.001127228,0.001127228,-0.1037749
2781,4.390785,-0.1178943,-0.01811144,-0.1314611,0.001426361,0.001426361,-0.1029661
2782,4.395218,-0.117578,-0.01809153,-0.1318428,0.00171073,0.00171073,-0.1010699
2783,4.400728,-0.1170467,-0.01807162,-0.1324131,0.002879597,0.002879597,-0.098983
2784,4.405575,-0.1167294,-0.01803163,-0.1328891,0.004455301,0.004455301,-0.09894913
2785,4.409989,-0.1164085,-0.01801161,-0.1332681,0.004665625,0.004665625,-0.09530947
2786,4.414968,-0.1161418,-0.01797143,-0.1336957,0.005884145,0.005884145,-0.09098442
2787,4.42066,-0.1158746,-0.0179109,-0.1342194,0.006238463,0.006238463,-0.085502
2788,4.425283,-0.1157677,-0.0178704,-0.1345059,0.006851741,0.006851741,-0.08100422
2789,4.429591,-0.1154962,-0.01785004,-0.134836,0.00735146,0.00735146,-0.07496174
2790,4.43477,-0.1153878,-0.01780933,-0.1351223,0.007518847,0.007518847,-0.07081465
2791,4.439365,-0.1152788,-0.01778889,-0.135312,0.007760034,0.007760034,-0.06386469
2792,4.443879,-0.1151694,-0.01776846,-0.1355017,0.007615133,0.007615133,-0.05788321
2793,4.449065,-0.1150597,-0.01774794,-0.1356913,0.006833269,0.006833269,-0.05314247
2794,4.453703,-0.1150046,-0.01772743,-0.1358344,0.005471003,0.005471003,-0.0407329
2795,4.458102,-0.1148948,-0.01772743,-0.1359272,0.005471003,0.005471003,-0.038957
2796,4.462656,-0.1148945,-0.01770687,-0.1360239,0,0,-0.02056397
2797,4.467888,-0.1148395,-0.01770687,-0.1360703,0.003117627,0.003117627,-0.02797283
2798,4.472276,-0.1147617,-0.01777725,-0.1360957,-0.0005603551,-0.0005603551,-0.01448673
2799,4.476846,-0.1147066,-0.01777725,-0.1361421,-0.0005603551,-0.0005603551,-0.0128784
2800,4.481523,-0.1147383,-0.01782702,-0.1361713,-0.001021295,-0.001021295,-0.01089212
2801,4.486782,-0.1147154,-0.0178974,-0.1361502,-0.007144089,-0.007144089,-0.0007117401
2802,4.491261,-0.114747,-0.01794714,-0.1361793,-0.008415822,-0.008415822,-0.000969118
2803,4.495129,-0.1147786,-0.01799685,-0.1362084,-0.009166456,-0.009166456,-0.001424193
2804,4.499086,-0.1148101,-0.01804648,-0.1362375,-0.01020244,-0.01020244,-0.001949023
2805,4.50307,-0.1148187,-0.01816642,-0.1362454,-0.01656867,-0.01656867,-0.004071297
2806,4.507109,-0.1149026,-0.0183358,-0.1362451,-0.01920829,-0.01920829,-0.005131807
2807,4.51087,-0.1149654,-0.01843467,-0.1363029,-0.02432816,-0.02432816,-0.006810745
2808,4.515008,-0.1150589,-0.01860365,-0.1362938,-0.03283492,-0.03283492,-0.006330546
2809,4.518948,-0.1151532,-0.01877238,-0.1362836,-0.03644451,-0.03644451,-0.006725571
2810,4.523163,-0.1152552,-0.01906013,-0.1362801,-0.04118132,-0.04118132,-0.002545305
2811,4.527273,-0.1152939,-0.01922831,-0.1363158,-0.04614317,-0.04614317,-0.002228016
2812,4.531252,-0.1154735,-0.01944512,-0.1362864,-0.05010705,-0.05010705,-0.0003926944
2813,4.535205,-0.1155741,-0.01973146,-0.1362814,-0.05468836,-0.05468836,6.166186E-05
2814,4.539357,-0.115674,-0.02001727,-0.1362759,-0.0565872,-0.0565872,-0.0003873935
2815,4.543245,-0.1157422,-0.02023259,-0.1363384,-0.05863052,-0.05863052,-0.0003528854
2816,4.547313,-0.1158656,-0.02046907,-0.1362569,-0.05696464,-0.05696464,2.015928E-05
2817,4.551244,-0.1159881,-0.02068359,-0.1362718,-0.05969885,-0.05969885,0.001578177
2818,4.555069,-0.1160556,-0.02091937,-0.1362364,-0.05924393,-0.05924393,0.002432144
2819,4.558944,-0.1161472,-0.02108511,-0.1362227,-0.06093692,-0.06093692,0.003805346
2820,4.56292,-0.1162445,-0.02138996,-0.1361173,-0.05920589,-0.05920589,0.005635312
2821,4.567005,-0.1163904,-0.02155519,-0.136056,-0.056529,-0.056529,0.007177963
2822,4.57094,-0.1164264,-0.02174211,-0.1359916,-0.05394502,-0.05394502,0.01076309
2823,4.574871,-0.116517,-0.02192886,-0.13588,-0.0496508,-0.0496508,0.01285888
2824,4.578755,-0.1167169,-0.0220935,-0.1357706,-0.05008434,-0.05008434,0.01885562
2825,4.582525,-0.1167769,-0.02223247,-0.1356314,-0.0451449,-0.0451449,0.01884669
2826,4.586495,-0.1168915,-0.02234942,-0.1355415,-0.04241553,-0.04241553,0.0224056
2827,4.590415,-0.1170607,-0.02246629,-0.1354042,-0.04020127,-0.04020127,0.02673171
2828,4.594423,-0.11712,-0.02260509,-0.1352645,-0.03726646,-0.03726646,0.02686782
2829,4.598383,-0.1173432,-0.02272183,-0.1350793,-0.03559677,-0.03559677,0.02947946
2830,4.602365,-0.1175116,-0.02283844,-0.1349411,-0.03360014,-0.03360014,0.03463449
2831,4.606787,-0.1177342,-0.022955,-0.1347551,-0.03265551,-0.03265551,0.03682234
2832,4.610931,-0.1179563,-0.0230715,-0.1345687,-0.03025086,-0.03025086,0.03776174
2833,4.614814,-0.1182035,-0.02311862,-0.1344044,-0.03022025,-0.03022025,0.03993655
2834,4.618704,-0.118425,-0.02323495,-0.134217,-0.02830541,-0.02830541,0.04162253
2835,4.622622,-0.118562,-0.02330419,-0.1340508,-0.02692136,-0.02692136,0.04216513
2836,4.626682,-0.1187828,-0.02342042,-0.1338628,-0.02476564,-0.02476564,0.04238469
2837,4.630563,-0.1190289,-0.02346739,-0.1336968,-0.02344656,-0.02344656,0.0433014
2838,4.63455,-0.1192448,-0.02346739,-0.1335042,-0.02232994,-0.02232994,0.04376844
2839,4.638463,-0.1193826,-0.0235143,-0.1334338,-0.01714743,-0.01714743,0.04294289
2840,4.642291,-0.1195981,-0.0235143,-0.1332407,-0.01744838,-0.01744838,0.04384344
2841,4.64636,-0.1198133,-0.0235143,-0.1330472,0,0,0.04660654
2842,4.65031,-0.1199745,-0.0235143,-0.1329019,0,0,0.04564125
2843,4.65426,-0.1201891,-0.0235143,-0.1327078,0,0,0.04550013
2844,4.658146,-0.1204034,-0.0235143,-0.1325134,0,0,0.04584956
2845,4.662095,-0.1206175,-0.0235143,-0.1323186,0,0,0.04520221
2846,4.666305,-0.1207778,-0.0235143,-0.1321723,0,0,0.04606348
2847,4.670335,-0.1209913,-0.0235143,-0.1319769,0,0,0.0454875
2848,4.674218,-0.1212044,-0.0235143,-0.1317812,0,0,0.04568691
2849,4.678127,-0.1214173,-0.0235143,-0.1315851,0,0,0.04530502
2850,4.682131,-0.1215767,-0.0235143,-0.1314378,0,0,0.04584495
2851,4.686228,-0.1217889,-0.0235143,-0.1312412,0,0,0.04529415
2852,4.690196,-0.1219479,-0.0235143,-0.1310934,0,0,0.04463948
2853,4.694131,-0.1221068,-0.0235143,-0.1309455,0,0,0.04387098
2854,4.698033,-0.1222199,-0.02353212,-0.1307596,0,0,0.04254043
2855,4.702041,-0.1223784,-0.02353212,-0.1306113,0,0,0.0401603
2856,4.706058,-0.1224281,-0.02355392,-0.1304662,-0.0003253013,-0.0003253013,0.03959737
2857,4.709944,-0.1224767,-0.02357611,-0.1303201,-0.0003253013,-0.0003253013,0.03779302
2858,4.713914,-0.1226346,-0.02357611,-0.1301716,-0.003274529,-0.003274529,0.0421592
2859,4.717881,-0.1227398,-0.02357611,-0.1300724,-0.003274529,-0.003274529,0.03892618
2860,4.721822,-0.1227877,-0.02359831,-0.1299263,-0.002740274,-0.002740274,0.03669163
2861,4.725919,-0.1228927,-0.02359831,-0.129827,-0.002740274,-0.002740274,0.03546958
2862,4.729943,-0.1229404,-0.02362046,-0.1296807,-0.002900958,-0.002900958,0.03458162
2863,4.733785,-0.1229356,-0.02364257,-0.1295842,-0.003078806,-0.003078806,0.03303383
2864,4.737605,-0.1230042,-0.02360931,-0.1294553,-0.003398515,-0.003398515,0.03172957
2865,4.741461,-0.1229942,-0.02365337,-0.1292622,-0.003687299,-0.003687299,0.0320455
2866,4.745538,-0.1230464,-0.02365337,-0.1292125,-0.005038502,-0.005038502,0.03406717
2867,4.749568,-0.1231143,-0.02362949,-0.128991,-0.004307127,-0.004307127,0.03327636
2868,4.75343,-0.1231089,-0.02365139,-0.1288946,-0.004606203,-0.004606203,0.03333008
2869,4.757261,-0.1231036,-0.02367328,-0.1287981,-0.005532689,-0.005532689,0.03364183
2870,4.761221,-0.1231766,-0.0236261,-0.1286735,0.0002197841,0.0002197841,0.0325214
2871,4.765488,-0.1232231,-0.0236479,-0.1285272,-0.0001227831,-0.0001227831,0.03310711
2872,4.769682,-0.1232693,-0.02366966,-0.1283811,-0.006397881,-0.006397881,0.03531552
2873,4.773527,-0.1232636,-0.02369142,-0.1282848,-0.006110625,-0.006110625,0.03386827
2874,4.777416,-0.1233938,-0.02362221,-0.1282065,-0.0005476955,-0.0005476955,0.03211646
2875,4.781337,-0.1234456,-0.02362221,-0.1281567,0.005314603,0.005314603,0.0188694
2876,4.785398,-0.1234974,-0.02362221,-0.1281068,0,0,0.01974508
2877,4.78941,-0.1235491,-0.02362221,-0.1280569,0,0,0.0187637
2878,4.793605,-0.1236009,-0.02362221,-0.1280069,0,0,0.01749732
2879,4.797712,-0.1236009,-0.02362221,-0.1280069,0,0,0.01694565
2880,4.801681,-0.1236009,-0.02362221,-0.1280069,0,0,0
2881,4.805986,-0.1236526,-0.02362221,-0.127957,0,0,0.007408217
2882,4.810349,-0.1236526,-0.02362221,-0.127957,0,0,0.007408217
2883,4.8148,-0.1235949,-0.02364394,-0.1279106,-0.0005211585,-0.0005211585,0.001114504
2884,4.819277,-0.1239125,-0.02281258,-0.1281658,0.01522918,0.01522918,-0.003709133
2885,4.823626,-0.1244078,-0.02149203,-0.1285637,0.2504711,0.2504711,-0.07498146
2886,4.828118,-0.1244696,-0.02107397,-0.1287774,0.2108339,0.2108339,-0.06238426
2887,4.832352,-0.124232,-0.0209036,-0.128678,0.1053931,0.1053931,-0.02403933
2888,4.836405,-0.1241797,-0.02050135,-0.1286359,0.0902522,0.0902522,-0.01545229
2889,4.840401,-0.1239841,-0.02007078,-0.1285704,0.07443529,0.07443529,0.01073627
2890,4.844717,-0.1237887,-0.01977843,-0.1284129,0.07623672,0.07623672,0.02724091
2891,4.848709,-0.1236507,-0.01929528,-0.1282282,0.091693,0.091693,0.02690328
2892,4.852637,-0.1234198,-0.01895005,-0.1280423,0.09054128,0.09054128,0.03712123
2893,4.856447,-0.1232452,-0.01858228,-0.1279016,0.09913462,0.09913462,0.0375583
2894,4.860306,-0.1230414,-0.01785165,-0.1277375,0.1251477,0.1251477,0.03799406
2895,4.864895,-0.1228433,-0.01723784,-0.1275779,0.1320237,0.1320237,0.04153077
2896,4.868947,-0.1225605,-0.01671107,-0.1273501,0.1439939,0.1439939,0.04067596
2897,4.872854,-0.1223375,-0.01601993,-0.127245,0.1445141,0.1445141,0.04364198
2898,4.876843,-0.1219985,-0.0154863,-0.1270609,0.145696,0.145696,0.0444495
2899,4.880949,-0.121788,-0.01485935,-0.1268911,0.1498557,0.1498557,0.04446933
2900,4.885146,-0.1214655,-0.01424798,-0.1267211,0.149884,0.149884,0.04450692
2901,4.889129,-0.1211755,-0.01368572,-0.1265772,0.150633,0.150633,0.03988134
2902,4.893011,-0.1208539,-0.01304941,-0.1264976,0.1526165,0.1526165,0.03832685
2903,4.896919,-0.1205009,-0.01249924,-0.1263019,0.1548416,0.1548416,0.03933673
2904,4.900967,-0.1202826,-0.01183908,-0.126215,0.1528357,0.1528357,0.04028694
2905,4.905034,-0.1199823,-0.01126531,-0.1260614,0.1546423,0.1546423,0.03698048
2906,4.908912,-0.1197075,-0.01060002,-0.1260178,0.1559358,0.1559358,0.03212466
2907,4.912857,-0.1193513,-0.01002087,-0.1259075,0.1539089,0.1539089,0.03105999
2908,4.916919,-0.1190301,-0.009493947,-0.125825,0.1545312,0.1545312,0.0275899
2909,4.920726,-0.1187851,-0.008876622,-0.1258041,0.1530644,0.1530644,0.02458106
2910,4.924685,-0.1184799,-0.00827378,-0.1257336,0.1462114,0.1462114,0.0222026
2911,4.928519,-0.1182667,-0.007907778,-0.1257379,0.1441491,0.1441491,0.02070158
2912,4.932524,-0.117996,-0.007357359,-0.1256946,0.1404845,0.1404845,0.01758758
2913,4.936408,-0.1176847,-0.006949365,-0.1256176,0.1335869,0.1335869,0.01364061
2914,4.940405,-0.1174108,-0.006395757,-0.1255707,0.1194795,0.1194795,0.01359576
2915,4.94451,-0.1172318,-0.006082356,-0.1256017,0.1171816,0.1171816,0.01139122
2916,4.948448,-0.1170644,-0.005711824,-0.1255527,0.1030553,0.1030553,0.01090729
2917,4.95232,-0.1168267,-0.005412772,-0.1255347,0.09961428,0.09961428,0.006770396
2918,4.956043,-0.1166274,-0.005170003,-0.1255481,0.08623219,0.08623219,0.0054011
2919,4.959994,-0.1164277,-0.004926875,-0.1255609,0.07566697,0.07566697,0.004706813
2920,4.964345,-0.1161587,-0.004755616,-0.1256048,0.05807959,0.05807959,-0.001172062
2921,4.968413,-0.1160505,-0.004770726,-0.125604,0.04447071,0.04447071,-0.0005330763
