Frame,Time,Cursor Position X,Cursor Position Y,Cursor Position Z,Cursor Velocity X,Cursor Velocity Y,Cursor Velocity Z
1,0,0,0,0,0,0,0
2,0.02,-0.1326881,0.01915273,-0.1409901,0.5313886,0.5313886,-0.002146252
3,0.0330442,-0.1353864,0.02499014,-0.1409035,0.4939157,0.4939157,0.01465341
4,0.044505,-0.1376748,0.02972379,-0.1404384,0.3841322,0.3841322,0.04182988
5,0.0492102,-0.1384075,0.03100368,-0.1402179,0.3438902,0.3438902,0.04664288
6,0.0514959,-0.1386802,0.03155592,-0.1401326,0.3320167,0.3320167,0.05017606
7,0.0580943,-0.1397215,0.0332887,-0.1396467,0.273522,0.273522,0.05931691
8,0.0616543,-0.140237,0.03414264,-0.1393466,0.2429994,0.2429994,0.06382079
9,0.0646596,-0.1406139,0.03469557,-0.1391383,0.2063297,0.2063297,0.07345497
10,0.0676629,-0.1409782,0.03509796,-0.1389194,0.1882986,0.1882986,0.07632989
11,0.0747484,-0.1416529,0.03592625,-0.1383371,0.1456327,0.1456327,0.07772253
12,0.0847687,-0.1424293,0.03648233,-0.1374304,0.0685304,0.0685304,0.09013132
13,0.0887509,-0.1426533,0.03647989,-0.1369018,0.05056951,0.05056951,0.09553248
14,0.0942916,-0.1429268,0.03642818,-0.1364119,0.03485908,0.03485908,0.1101148
15,0.0973052,-0.1430888,0.0363766,-0.1360373,-0.01393661,-0.01393661,0.1127214
16,0.1011232,-0.1431931,0.03629947,-0.1356198,-0.01418693,-0.01418693,0.1115307
17,0.1082629,-0.1435666,0.03619711,-0.1348122,-0.01454516,-0.01454516,0.1109459
18,0.1114377,-0.1436702,0.03614615,-0.1344952,-0.01482452,-0.01482452,0.1109551
19,0.1144366,-0.1438261,0.0360605,-0.1342175,-0.01487679,-0.01487679,0.1110079
20,0.1174611,-0.1439775,0.035936,-0.1338386,-0.01497911,-0.01497911,0.1102661
21,0.1208303,-0.1441173,0.03565983,-0.1334518,-0.02204507,-0.02204507,0.1105071
22,0.1273113,-0.1444078,0.03528328,-0.1327856,-0.05968419,-0.05968419,0.1105121
23,0.1303803,-0.1445003,0.03510772,-0.1325607,-0.0640084,-0.0640084,0.1085238
24,0.1332278,-0.1446401,0.03485698,-0.1322733,-0.06552162,-0.06552162,0.105793
25,0.1364687,-0.1447792,0.03460631,-0.1319856,-0.06692087,-0.06692087,0.104145
26,0.1438932,-0.145214,0.03410508,-0.1312332,-0.06952737,-0.06952737,0.1002763
27,0.1469592,-0.1454142,0.03395468,-0.13099,-0.0689991,-0.0689991,0.1004752
28,0.1498444,-0.1456667,0.0338043,-0.1306875,-0.05831461,-0.05831461,0.08434421
29,0.1537305,-0.1460177,0.03357872,-0.1302623,-0.05894041,-0.05894041,0.09099847
30,0.1603443,-0.1465831,0.03342833,-0.1296035,-0.04483289,-0.04483289,0.1033734
31,0.1633846,-0.1468907,0.03335312,-0.1292435,-0.04298702,-0.04298702,0.1027676
32,0.1663443,-0.1471922,0.0332979,-0.1289746,-0.03389031,-0.03389031,0.1052015
33,0.1692764,-0.1475621,0.03332233,-0.128657,-0.03171918,-0.03171918,0.1055106
34,0.176498,-0.1484518,0.03324693,-0.127932,-0.01561622,-0.01561622,0.09641837
35,0.1794416,-0.1487627,0.03319682,-0.1276675,-0.01319106,-0.01319106,0.09783886
36,0.1823021,-0.1491901,0.03324708,-0.1273861,-0.01232421,-0.01232421,0.09714654
37,0.1853843,-0.1494486,0.03319705,-0.1271803,-0.01035012,-0.01035012,0.09839775
38,0.1928646,-0.1500654,0.03314704,-0.12655,-0.008570395,-0.008570395,0.07944056
39,0.1968436,-0.1503802,0.03317228,-0.126286,0.007972824,0.007972824,0.06931797
40,0.199051,-0.1504312,0.03317228,-0.1262252,0.007972824,0.007972824,0.06813373
41,0.2020592,-0.1505862,0.03312233,-0.1261386,-0.006294913,-0.006294913,0.05410454
42,0.2091995,-0.150739,0.03312233,-0.1259559,0,0,0.04635
43,0.2122562,-0.1508494,0.03314765,-0.1259342,0,0,0.03278505
44,0.2152539,-0.1509511,0.03314765,-0.1258123,0.004106648,0.004106648,0.02520729
45,0.2180743,-0.151002,0.03314765,-0.1257513,0.003673361,0.003673361,0.02433252
46,0.225019,-0.1513331,0.03322378,-0.1256852,0.006468092,0.006468092,0.02031422
47,0.2285156,-0.1514942,0.03324921,-0.1256018,0.007232231,0.007232231,0.01916658
48,0.2314027,-0.1516643,0.03330019,-0.1256184,0.007717532,0.007717532,0.01805115
49,0.2345462,-0.1517746,0.03332573,-0.125596,0.01091372,0.01091372,0.009946329
50,0.2378127,-0.1520043,0.03340256,-0.1256512,0.01149434,0.01149434,0.008228894
51,0.2477189,-0.1524548,0.03353128,-0.1256607,0.01479798,0.01479798,0.003154345
52,0.2565166,-0.1532033,0.03379121,-0.1258623,0.02018709,0.02018709,-0.008476154
53,0.2658302,-0.1538499,0.0340545,-0.1261861,0.02459066,0.02459066,-0.0182276
54,0.26807,-0.1540795,0.03413415,-0.1262395,0.0256369,0.0256369,-0.02271954
55,0.2752027,-0.1546003,0.0342726,-0.1264809,0.02731017,0.02731017,-0.02660332
56,0.2782986,-0.1548235,0.03427798,-0.1265295,0.02880398,0.02880398,-0.03034275
57,0.2812626,-0.1551719,0.03441319,-0.1266588,0.02872276,0.02872276,-0.03121636
58,0.2842371,-0.155395,0.0344193,-0.126707,0.02877794,0.02877794,-0.03109836
59,0.2873166,-0.1556264,0.03445306,-0.1268561,0.01617423,0.01617423,-0.03083263
60,0.2940179,-0.1562491,0.03459753,-0.1269689,0.01630722,0.01630722,-0.02724534
61,0.2969478,-0.1565892,0.03470825,-0.1269951,0.01909258,0.01909258,-0.02827653
62,0.2998563,-0.156923,0.03474405,-0.1270166,0.01914353,0.01914353,-0.02181146
63,0.3029528,-0.1571525,0.03482786,-0.1270672,0.01897902,0.01897902,-0.01773664
64,0.3249223,-0.1590709,0.03429005,-0.1268394,-0.02846324,-0.02846324,0.00793546
65,0.328526,-0.1593313,0.03414956,-0.1268104,-0.04208843,-0.04208843,0.009568678
66,0.3316315,-0.159525,0.03390501,-0.1267391,-0.05421888,-0.05421888,0.01286392
67,0.3344166,-0.1597039,0.03350954,-0.1266582,-0.06521752,-0.06521752,0.01806695
68,0.3416485,-0.1600511,0.03264344,-0.1264892,-0.09817155,-0.09817155,0.02456857
69,0.3449473,-0.1601748,0.03229484,-0.1263733,-0.1007896,-0.1007896,0.0268946
70,0.3480269,-0.1602466,0.03194635,-0.1263216,-0.1040378,-0.1040378,0.02681711
71,0.350854,-0.1603011,0.03149343,-0.1261623,-0.1140728,-0.1140728,0.02795745
72,0.3539119,-0.1603794,0.03122047,-0.1261146,-0.1111288,-0.1111288,0.027129
73,0.3609152,-0.1604581,0.03049476,-0.1259705,-0.1135741,-0.1135741,0.02877608
74,0.3632831,-0.1604326,0.0302684,-0.1259547,-0.1095177,-0.1095177,0.02436867
75,0.3652202,-0.1604155,0.03011751,-0.125944,-0.10253,-0.10253,0.02488499
76,0.3673436,-0.1604069,0.03004207,-0.1259387,-0.09512039,-0.09512039,0.02312049
77,0.3693515,-0.1603809,0.02981576,-0.1259225,-0.1016446,-0.1016446,0.03188612
78,0.3716966,-0.1604142,0.02966487,-0.1258469,-0.09591099,-0.09591099,0.02037779
79,0.3739109,-0.1603966,0.02951401,-0.1258359,-0.07901096,-0.07901096,0.01919918
80,0.3757564,-0.1603878,0.02943861,-0.1258304,-0.07900837,-0.07900837,0.01921784
81,0.3776742,-0.1603789,0.02936317,-0.1258249,-0.07118846,-0.07118846,0.01866612
82,0.3794637,-0.16037,0.02928776,-0.1258194,-0.06356195,-0.06356195,0.004669257
83,0.3813265,-0.1603611,0.02921233,-0.1258138,-0.05951985,-0.05951985,0.004387099
84,0.3838703,-0.1603521,0.02913691,-0.1258083,-0.05814872,-0.05814872,0.004300461
85,0.3864873,-0.1603431,0.02906153,-0.1258027,-0.04512955,-0.04512955,0.003348815
86,0.3894735,-0.1603341,0.0289861,-0.1257971,-0.03764797,-0.03764797,0.002802998
87,0.3917038,-0.1602862,0.02896297,-0.1257674,-0.03764797,-0.03764797,0.002802998
88,0.3937113,-0.1602862,0.02896297,-0.1257674,-0.03546042,-0.03546042,0.002640944
89,0.395614,-0.1602771,0.02888757,-0.1257617,-0.0241571,-0.0241571,0.00180512
90,0.3977899,-0.1602771,0.02888757,-0.1257617,-0.0241571,-0.0241571,0.00180512
91,0.4000344,-0.1602771,0.02888757,-0.1257617,-0.0241571,-0.0241571,0.00180512
92,0.4023463,-0.1602771,0.02888757,-0.1257617,0,0,0
93,0.4042961,-0.1603279,0.02888757,-0.125697,0,0,0.001964658
94,0.4060847,-0.1603279,0.02888757,-0.125697,0,0,0.001964658
95,0.4080169,-0.1603279,0.02888757,-0.125697,0,0,0.001964658
96,0.4098273,-0.1603279,0.02888757,-0.125697,0,0,0.001964658
97,0.4117964,-0.1603787,0.02888757,-0.1256322,0,0,0.003132479
98,0.4140808,-0.1603787,0.02888757,-0.1256322,0,0,0.003132479
99,0.4160448,-0.1603787,0.02888757,-0.1256322,0,0,0.003132479
100,0.4183662,-0.1603707,0.02885929,-0.125531,0,0,0.008591165
101,0.4203682,-0.1603707,0.02885929,-0.125531,-0.0004889258,-0.0004889258,0.009219396
102,0.4226785,-0.1603707,0.02885929,-0.125531,-0.00104386,-0.00104386,0.009932928
103,0.4247669,-0.1604214,0.02885929,-0.1254662,-0.00104386,-0.00104386,0.01057821
104,0.427553,-0.1604214,0.02885929,-0.1254662,0,0,0.009238943
105,0.4298743,-0.1604721,0.02885929,-0.1254014,0,0,0.01024221
106,0.4318789,-0.1605228,0.02885929,-0.1253365,0,0,0.01136125
107,0.4341994,-0.1605136,0.0288305,-0.1252347,0,0,0.01136125
108,0.4364605,-0.1605136,0.0288305,-0.1252347,-0.001313049,-0.001313049,0.0140651
109,0.4385066,-0.1605642,0.0288305,-0.1251698,-0.001313049,-0.001313049,0.0161423
110,0.4405548,-0.160495,0.02872631,-0.1251272,-0.003364174,-0.003364174,0.01680372
111,0.4427322,-0.1605455,0.02872631,-0.1250624,-0.003364174,-0.003364174,0.01711521
112,0.4447282,-0.1605869,0.02865091,-0.1249919,-0.003364174,-0.003364174,0.01996529
113,0.4469368,-0.1605682,0.02854675,-0.1248844,-0.007485013,-0.007485013,0.02262538
114,0.4489934,-0.1606002,0.02839601,-0.1248081,-0.008757977,-0.008757977,0.02349284
115,0.4509468,-0.1605719,0.02821651,-0.1246949,-0.03783654,-0.03783654,0.02888327
116,0.4529063,-0.1605625,0.02814114,-0.1246892,-0.04611524,-0.04611524,0.03179419
117,0.4548239,-0.1605433,0.02803712,-0.1245817,-0.0575424,-0.0575424,0.0328856
118,0.4572217,-0.1605245,0.02788636,-0.1245701,-0.04673498,-0.04673498,0.0320665
119,0.4598189,-0.1604956,0.02770703,-0.1244568,-0.04825621,-0.04825621,0.03173848
120,0.4620312,-0.1604861,0.0276317,-0.1244509,-0.05755574,-0.05755574,0.03247243
121,0.4643814,-0.1604669,0.02748102,-0.1244392,-0.05799022,-0.05799022,0.03266137
122,0.4664367,-0.1604477,0.02733037,-0.1244274,-0.05875408,-0.05875408,0.03260749
123,0.4685013,-0.160438,0.027255,-0.1244214,-0.05533739,-0.05533739,0.004350893
124,0.4706646,-0.1604185,0.02710433,-0.1244095,-0.05598389,-0.05598389,0.004429346
125,0.4729977,-0.1603891,0.02687839,-0.1243915,-0.06078997,-0.06078997,0.004854601
126,0.475065,-0.1603693,0.02672777,-0.1243794,-0.06648915,-0.06648915,0.005342555
127,0.4769534,-0.1603495,0.02657716,-0.1243673,-0.06692656,-0.06692656,0.005410767
128,0.4789005,-0.1603295,0.02642655,-0.124355,-0.06617722,-0.06617722,0.005382881
129,0.4807933,-0.1603094,0.02627596,-0.1243427,-0.07095164,-0.07095164,0.005806294
130,0.4837321,-0.1602891,0.02612537,-0.1243303,-0.0676851,-0.0676851,0.00557246
131,0.4864708,-0.1602183,0.02589954,-0.1243633,-0.07052218,-0.07052218,0.007917072
132,0.4885712,-0.1602081,0.02582428,-0.1243571,-0.06751723,-0.06751723,0.007701222
133,0.4905975,-0.1601382,0.02567375,-0.1244079,-0.06707953,-0.06707953,0.00352481
134,0.4926135,-0.1601279,0.0255985,-0.1244015,-0.0684548,-0.0684548,0.003678688
135,0.4949311,-0.1600948,0.02539553,-0.1244765,-0.06880343,-0.06880343,0.002088727
136,0.4967815,-0.160034,0.02532029,-0.1245347,-0.06833713,-0.06833713,-0.01226832
137,0.4989011,-0.1599627,0.02516979,-0.1245865,-0.06768505,-0.06768505,-0.01257912
138,0.5010111,-0.1600006,0.0250473,-0.1246098,-0.06486122,-0.06486122,-0.01363111
139,0.5035704,-0.1599396,0.02497205,-0.1246679,-0.06219842,-0.06219842,-0.01328867
140,0.5056896,-0.159929,0.02489683,-0.1246614,-0.06156318,-0.06156318,-0.01331844
141,0.507689,-0.1599784,0.02485013,-0.1246918,-0.05434479,-0.05434479,-0.01904934
142,0.5097257,-0.1599668,0.02472827,-0.1247804,-0.05280021,-0.05280021,-0.01895928
143,0.5116589,-0.1599561,0.02465305,-0.1247738,-0.05280698,-0.05280698,-0.01893415
144,0.5140229,-0.1600055,0.02460647,-0.1248042,-0.04832255,-0.04832255,-0.01940426
145,0.5162487,-0.1599947,0.02453122,-0.1247976,-0.04485895,-0.04485895,-0.01969671
146,0.518169,-0.1600441,0.02448469,-0.124828,-0.03810456,-0.03810456,-0.004079145
147,0.5209279,-0.1600934,0.02443814,-0.1248584,-0.03692227,-0.03692227,-0.004697479
148,0.5234632,-0.1600825,0.02436295,-0.1248517,-0.02890286,-0.02890286,-0.005411021
149,0.5257665,-0.1600825,0.02436295,-0.1248517,-0.02890177,-0.02890177,-0.005402743
150,0.5276933,-0.1601318,0.02431646,-0.1248821,-0.02575451,-0.02575451,-0.005167869
151,0.5300664,-0.1601209,0.02424127,-0.1248753,-0.02202294,-0.02202294,-0.005501649
152,0.5323076,-0.1601209,0.02424127,-0.1248753,-0.02160207,-0.02160207,-0.006037246
153,0.5374251,-0.1601701,0.02419478,-0.1249057,-0.01607539,-0.01607539,-0.005736697
154,0.5398605,-0.1601701,0.02419478,-0.1249057,-0.01599333,-0.01599333,-0.00584247
155,0.542121,-0.1601701,0.02419478,-0.1249057,-0.01516964,-0.01516964,-0.005424573
156,0.5446677,-0.1601701,0.02419478,-0.1249057,-0.02083134,-0.02083134,0.001873128
157,0.5472511,-0.1601701,0.02419478,-0.1249057,0,0,0
158,0.5498353,-0.1601701,0.02419478,-0.1249057,0,0,0
159,0.5520037,-0.1601701,0.02419478,-0.1249057,0,0,0
160,0.5538764,-0.1601701,0.02419478,-0.1249057,0,0,0
161,0.555802,-0.1601701,0.02419478,-0.1249057,0,0,0
162,0.5581416,-0.1601701,0.02419478,-0.1249057,0,0,0
163,0.5599437,-0.1601701,0.02419478,-0.1249057,0,0,0
164,0.5617022,-0.1601701,0.02419478,-0.1249057,0,0,0
165,0.5638826,-0.1601701,0.02419478,-0.1249057,0,0,0
166,0.5657497,-0.1601701,0.02419478,-0.1249057,0,0,0
167,0.5676513,-0.1601701,0.02419478,-0.1249057,0,0,0
168,0.5697073,-0.1601701,0.02419478,-0.1249057,0,0,0
169,0.5715381,-0.1601701,0.02419478,-0.1249057,0,0,0
170,0.5739959,-0.1601701,0.02419478,-0.1249057,0,0,0
171,0.5758728,-0.1601701,0.02419478,-0.1249057,0,0,0
172,0.5776098,-0.1601701,0.02419478,-0.1249057,0,0,0
173,0.5793506,-0.1601701,0.02419478,-0.1249057,0,0,0
174,0.5814375,-0.1601701,0.02419478,-0.1249057,0,0,0
175,0.5837136,-0.1601701,0.02419478,-0.1249057,0,0,0
176,0.5855868,-0.1601701,0.02419478,-0.1249057,0,0,0
177,0.5879537,-0.1601701,0.02419478,-0.1249057,0,0,0
178,0.5897519,-0.1601701,0.02419478,-0.1249057,0,0,0
179,0.5914842,-0.1601701,0.02419478,-0.1249057,0,0,0
180,0.5932774,-0.1601701,0.02419478,-0.1249057,0,0,0
181,0.5953917,-0.1601701,0.02419478,-0.1249057,0,0,0
182,0.597265,-0.1601701,0.02419478,-0.1249057,0,0,0
183,0.5995948,-0.1602104,0.02419478,-0.1248539,0,0,0
184,0.6015774,-0.1602104,0.02419478,-0.1248539,0,0,0
185,0.6040116,-0.1602599,0.02419478,-0.1247904,0,0,0.0006839152
186,0.6062123,-0.1602599,0.02419478,-0.1247904,0,0,0.0006839152
187,0.6081932,-0.1602117,0.02417177,-0.1247608,0,0,0.0006839152
188,0.6100674,-0.1602117,0.02417177,-0.1247608,0,0,0.0006837097
189,0.6120693,-0.160262,0.02417177,-0.1246961,0,0,0.001263581
190,0.6141704,-0.160262,0.02417177,-0.1246961,0,0,0.01016897
191,0.6162367,-0.160262,0.02417177,-0.1246961,0,0,0.01016897
192,0.6183451,-0.1603124,0.02417177,-0.1246314,0,0,0.010318
193,0.6203704,-0.1603124,0.02417177,-0.1246314,0,0,0.010318
194,0.6231567,-0.1603124,0.02417177,-0.1246314,0,0,0.010318
195,0.6252938,-0.1603124,0.02417177,-0.1246314,0,0,0.010318
196,0.6278594,-0.1603628,0.02417177,-0.1245666,0,0,0.009109297
197,0.6298398,-0.1603628,0.02417177,-0.1245666,0,0,0.009109297
198,0.6317716,-0.1603628,0.02417177,-0.1245666,0,0,0.009109297
199,0.6337313,-0.1603628,0.02417177,-0.1245666,0,0,0.009109297
200,0.6357342,-0.1603628,0.02417177,-0.1245666,0,0,0
201,0.637949,-0.160413,0.02417177,-0.1245018,0,0,0.007521383
202,0.6403311,-0.160413,0.02417177,-0.1245018,0,0,0.007523742
203,0.6428632,-0.160413,0.02417177,-0.1245018,0,0,0.007297298
204,0.6449453,-0.160413,0.02417177,-0.1245018,0,0,0.007297298
205,0.647173,-0.1604633,0.02417177,-0.124437,0,0,0.007305618
206,0.6500364,-0.1604633,0.02417177,-0.124437,0,0,0.006615607
207,0.6524022,-0.1604633,0.02417177,-0.124437,0,0,0.006615607
208,0.6547043,-0.1604633,0.02417177,-0.124437,0,0,0.006615607
209,0.6573527,-0.1604633,0.02417177,-0.124437,0,0,0
210,0.6592671,-0.1605136,0.02417177,-0.1243721,0,0,0.006048826
211,0.661336,-0.1605136,0.02417177,-0.1243721,0,0,0.006050721
212,0.6635745,-0.1605136,0.02417177,-0.1243721,0,0,0.006050721
213,0.6654536,-0.1605136,0.02417177,-0.1243721,0,0,0.006050721
214,0.667409,-0.1605136,0.02417177,-0.1243721,0,0,0
215,0.6696422,-0.1605026,0.02409658,-0.1243654,-0.000571848,-0.000571848,5.131242E-05
216,0.6719799,-0.1605026,0.02409658,-0.1243654,-0.000571848,-0.000571848,5.131242E-05
217,0.6737995,-0.1605026,0.02409658,-0.1243654,-0.000571848,-0.000571848,5.131242E-05
218,0.6755603,-0.1605026,0.02409658,-0.1243654,-0.000571848,-0.000571848,5.131242E-05
219,0.6775694,-0.1605026,0.02409658,-0.1243654,0,0,0
220,0.6799542,-0.1606152,0.02455471,-0.1244343,0.02462349,0.02462349,-0.002192492
221,0.6819846,-0.1606904,0.0250814,-0.1244804,0.05840958,0.05840958,-0.005112471
222,0.6848011,-0.160816,0.02598467,-0.1245572,0.1046087,0.1046087,-0.008845055
223,0.6866683,-0.160867,0.0263612,-0.1245884,0.1165583,0.1165583,-0.009740054
224,0.6884198,-0.1609372,0.02688843,-0.1246314,0.281132,0.281132,-0.02293643
225,0.6902081,-0.1609766,0.02718976,-0.1246555,0.2636064,0.2636064,-0.02111604
226,0.6919658,-0.1610059,0.02741583,-0.1246734,0.2562388,0.2562388,-0.02020977
227,0.6936552,-0.1610156,0.02749118,-0.1246793,0.2059656,0.2059656,-0.01624468
228,0.6953683,-0.1609946,0.02764188,-0.1247432,0.1303135,0.1303135,-0.0102137
229,0.697635,-0.1610233,0.02786799,-0.1247608,0.1241459,0.1241459,-0.009674198
230,0.6994449,-0.1610612,0.02816948,-0.124784,0.1291456,0.1291456,-0.009936495
231,0.7012548,-0.1611079,0.02854642,-0.1248126,0.1195921,0.1195921,-0.009083617
232,0.7032577,-0.1611447,0.02884802,-0.1248351,0.1297237,0.1297237,-0.009661611
233,0.7049981,-0.161181,0.02914968,-0.1248574,0.130752,0.130752,-0.009641719
234,0.7067159,-0.16119,0.02922508,-0.1248629,0.1296352,0.1296352,-0.009495638
235,0.7145909,-0.1612975,0.03058301,-0.1250229,0.1541475,0.1541475,-0.01197715
236,0.7213152,-0.1613798,0.03176694,-0.1250733,0.1663419,0.1663419,-0.01084953
237,0.727958,-0.1614166,0.03317308,-0.125192,0.1816663,0.1816663,-0.01464485
238,0.7341666,-0.1614646,0.03427705,-0.1252214,0.1902677,0.1902677,-0.00630191
239,0.7430711,-0.1615098,0.03610779,-0.1252491,0.1926194,0.1926194,-0.004579942
240,0.7451741,-0.1615405,0.03648563,-0.125268,0.1923306,0.1923306,-0.004280512
241,0.7469944,-0.1615705,0.03686349,-0.1252864,0.1924318,0.1924318,-0.004048398
242,0.7486661,-0.1615881,0.0370902,-0.1252972,0.193144,0.193144,-0.003987836
243,0.7504195,-0.1615629,0.03751457,-0.1252817,0.1960618,0.1960618,-0.004045488
244,0.7520737,-0.1615908,0.03789243,-0.1252989,0.1965381,0.1965381,-0.003830846
245,0.7536968,-0.1616072,0.03811917,-0.1253089,0.1970493,0.1970493,-0.003708798
246,0.7554207,-0.1616339,0.03849709,-0.1253253,0.1992384,0.1992384,-0.003335482
247,0.7572681,-0.1616053,0.03892142,-0.1253078,0.1977643,0.1977643,-0.003155621
248,0.7592285,-0.1616354,0.03937489,-0.1253262,0.1999917,0.1999917,-0.002959831
249,0.7612592,-0.1616596,0.03975278,-0.1253411,0.1998459,0.1998459,-0.002660003
250,0.7634191,-0.1616876,0.04020624,-0.1253583,0.2017143,0.2017143,-0.002348118
251,0.765209,-0.161655,0.04063055,-0.1253383,0.2013997,0.2013997,-0.002203271
252,0.7669395,-0.161681,0.04108399,-0.1253542,0.2034329,0.2034329,-0.002406156
253,0.7687418,-0.1616894,0.04123515,-0.1253593,0.2027275,0.2027275,-0.002183138
254,0.770496,-0.1616544,0.04165938,-0.1253379,0.2039047,0.2039047,-0.001630136
255,0.7723538,-0.1616779,0.0421128,-0.1253523,0.2048079,0.2048079,-0.001365107
256,0.7741155,-0.1616966,0.0424906,-0.1253638,0.2047864,0.2047864,-0.001201873
257,0.7760094,-0.1616551,0.04283923,-0.1253383,0.2038796,0.2038796,-0.0009254419
258,0.7778997,-0.1617129,0.04321697,-0.1252966,0.2032876,0.2032876,-0.0005392272
259,0.7798439,-0.1617196,0.04336804,-0.1253008,0.2029542,0.2029542,-0.000430663
260,0.7818587,-0.1616858,0.04394323,-0.12528,0.1956472,0.1956472,0.0006337508
261,0.7847762,-0.1616979,0.04424533,-0.1252874,0.1851445,0.1851445,0.001130748
262,0.7869463,-0.1617081,0.04474488,-0.1251992,0.1824324,0.1824324,0.002690277
263,0.7889491,-0.161719,0.04504696,-0.1252059,0.1804678,0.1804678,0.003167241
264,0.791137,-0.1617319,0.04542452,-0.1252138,0.1706669,0.1706669,0.003549501
265,0.7929668,-0.1617303,0.04562184,-0.1251167,0.1652018,0.1652018,0.004558316
266,0.7947377,-0.161735,0.04577285,-0.1251196,0.159484,0.159484,0.004745221
267,0.7964998,-0.1617442,0.04607481,-0.1251252,0.1592909,0.1592909,0.01255664
268,0.7981941,-0.161753,0.04637679,-0.1251306,0.1533019,0.1533019,0.01281881
269,0.7999283,-0.1617612,0.04667871,-0.1251356,0.149968,0.149968,0.01302507
